,ECG,EDA,Photosensor,RSP
0,0.023040771484375,3.294371417706188,5.0,-6.6375732421875
1,0.024566650390625,3.292845538799938,5.0,-6.63604736328125
2,0.02593994140625,3.292845538799938,5.0,-6.6424560546875
3,0.027008056640625,3.292845538799938,5.0,-6.641845703125
4,0.027313232421875,3.292845538799938,5.0,-6.64276123046875
5,0.0286865234375,3.292845538799938,5.0,-6.63848876953125
6,0.028533935546875,3.292845538799938,5.0,-6.640625
7,0.029754638671875,3.292845538799938,5.0,-6.63848876953125
8,0.03021240234375,3.292845538799938,5.0,-6.63787841796875
9,0.029754638671875,3.282164386456188,5.0,-6.63787841796875
10,0.030975341796875,3.282164386456188,5.0,-6.63726806640625
11,0.032501220703125,3.282164386456188,5.0,-6.63330078125
12,0.0341796875,3.282164386456188,5.0,-6.6339111328125
13,0.03692626953125,3.282164386456188,5.0,-6.6339111328125
14,0.037994384765625,3.282164386456188,5.0,-6.63360595703125
15,0.039825439453125,3.282164386456188,5.0,-6.632080078125
16,0.041351318359375,3.282164386456188,5.0,-6.6326904296875
17,0.042877197265625,3.282164386456188,5.0,-6.63238525390625
18,0.044403076171875,3.282164386456188,5.0,-6.63482666015625
19,0.0457763671875,3.282164386456188,5.0,-6.63787841796875
20,0.045623779296875,3.282164386456188,5.0,-6.6387939453125
21,0.044708251953125,3.282164386456188,5.0,-6.6351318359375
22,0.0439453125,3.282164386456188,5.0,-6.639404296875
23,0.04241943359375,3.282164386456188,5.0,-6.63818359375
24,0.040435791015625,3.282164386456188,5.0,-6.63848876953125
25,0.039215087890625,3.282164386456188,5.0,-6.63665771484375
26,0.036773681640625,3.282164386456188,5.0,-6.64306640625
27,0.034332275390625,3.282164386456188,5.0,-6.641845703125
28,0.0323486328125,3.282164386456188,5.0,-6.64215087890625
29,0.0299072265625,3.282164386456188,5.0,-6.63848876953125
30,0.028076171875,3.282164386456188,5.0,-6.6400146484375
31,0.02655029296875,3.282164386456188,5.0,-6.63970947265625
32,0.0244140625,3.282164386456188,5.0,-6.63970947265625
33,0.022125244140625,3.282164386456188,5.0,-6.63848876953125
34,0.019683837890625,3.282164386456188,5.0,-6.63970947265625
35,0.01617431640625,3.282164386456188,5.0,-6.6351318359375
36,0.012054443359375,3.282164386456188,5.0,-6.6351318359375
37,0.009613037109375,3.282164386456188,5.0,-6.63543701171875
38,0.00701904296875,3.282164386456188,5.0,-6.63604736328125
39,0.00457763671875,3.282164386456188,5.0,-6.6351318359375
40,0.00244140625,3.282164386456188,5.0,-6.634521484375
41,-0.001373291015625,3.283690265362438,5.0,-6.634521484375
42,-0.0042724609375,3.283690265362438,5.0,-6.6351318359375
43,-0.008087158203125,3.283690265362438,5.0,-6.6400146484375
44,-0.01190185546875,3.283690265362438,5.0,-6.641845703125
45,-0.016021728515625,3.283690265362438,5.0,-6.63970947265625
46,-0.020904541015625,3.283690265362438,5.0,-6.64520263671875
47,-0.025634765625,3.283690265362438,5.0,-6.6461181640625
48,-0.030517578125,3.283690265362438,5.0,-6.644287109375
49,-0.0341796875,3.271483234112438,5.0,-6.64642333984375
50,-0.037841796875,3.271483234112438,5.0,-6.64947509765625
51,-0.040130615234375,3.271483234112438,5.0,-6.64764404296875
52,-0.042572021484375,3.271483234112438,5.0,-6.64825439453125
53,-0.044097900390625,3.271483234112438,5.0,-6.646728515625
54,-0.04486083984375,3.271483234112438,5.0,-6.64581298828125
55,-0.046234130859375,3.271483234112438,5.0,-6.64642333984375
56,-0.0469970703125,3.271483234112438,5.0,-6.6455078125
57,-0.048370361328125,3.271483234112438,5.0,-6.64642333984375
58,-0.048370361328125,3.271483234112438,5.0,-6.64642333984375
59,-0.049591064453125,3.271483234112438,5.0,-6.6534423828125
60,-0.05035400390625,3.271483234112438,5.0,-6.65374755859375
61,-0.0506591796875,3.271483234112438,5.0,-6.651611328125
62,-0.0518798828125,3.271483234112438,5.0,-6.6546630859375
63,-0.052337646484375,3.271483234112438,5.0,-6.6522216796875
64,-0.05340576171875,3.271483234112438,5.0,-6.654052734375
65,-0.054168701171875,3.266905597393688,5.0,-6.6522216796875
66,-0.0543212890625,3.266905597393688,5.0,-6.656494140625
67,-0.055694580078125,3.266905597393688,5.0,-6.65740966796875
68,-0.05523681640625,3.266905597393688,5.0,-6.6552734375
69,-0.055694580078125,3.266905597393688,5.0,-6.65374755859375
70,-0.055999755859375,3.266905597393688,5.0,-6.65618896484375
71,-0.054473876953125,3.266905597393688,5.0,-6.6552734375
72,-0.05279541015625,3.266905597393688,5.0,-6.6571044921875
73,-0.050201416015625,3.271483234112438,5.0,-6.65252685546875
74,-0.046844482421875,3.271483234112438,5.0,-6.6558837890625
75,-0.044708251953125,3.271483234112438,5.0,-6.6473388671875
76,-0.043182373046875,3.271483234112438,5.0,-6.6448974609375
77,-0.04180908203125,3.271483234112438,5.0,-6.64459228515625
78,-0.041046142578125,3.271483234112438,5.0,-6.644287109375
79,-0.039825439453125,3.271483234112438,5.0,-6.644287109375
80,-0.039825439453125,3.271483234112438,5.0,-6.64398193359375
81,-0.0390625,3.269957355206188,5.0,-6.64337158203125
82,-0.038299560546875,3.269957355206188,5.0,-6.64398193359375
83,-0.038604736328125,3.269957355206188,5.0,-6.64581298828125
84,-0.0384521484375,3.269957355206188,5.0,-6.64703369140625
85,-0.03814697265625,3.269957355206188,5.0,-6.64947509765625
86,-0.038909912109375,3.269957355206188,5.0,-6.6485595703125
87,-0.040130615234375,3.269957355206188,5.0,-6.65008544921875
88,-0.040740966796875,3.269957355206188,5.0,-6.64947509765625
89,-0.04058837890625,3.269957355206188,5.0,-6.64764404296875
90,-0.040740966796875,3.269957355206188,5.0,-6.6473388671875
91,-0.0408935546875,3.269957355206188,5.0,-6.65191650390625
92,-0.040740966796875,3.269957355206188,5.0,-6.64794921875
93,-0.040435791015625,3.269957355206188,5.0,-6.6473388671875
94,-0.03936767578125,3.269957355206188,5.0,-6.6473388671875
95,-0.039825439453125,3.269957355206188,5.0,-6.64459228515625
96,-0.038909912109375,3.269957355206188,5.0,-6.644287109375
97,-0.037689208984375,3.257750323956188,5.0,-6.64276123046875
98,-0.035858154296875,3.257750323956188,5.0,-6.64306640625
99,-0.034332275390625,3.257750323956188,5.0,-6.64276123046875
100,-0.033111572265625,3.257750323956188,5.0,-6.6485595703125
101,-0.030364990234375,3.257750323956188,5.0,-6.64703369140625
102,-0.02777099609375,3.257750323956188,5.0,-6.646728515625
103,-0.023345947265625,3.257750323956188,5.0,-6.64794921875
104,-0.01861572265625,3.257750323956188,5.0,-6.64581298828125
105,-0.013275146484375,3.257750323956188,5.0,-6.63970947265625
106,-0.00640869140625,3.257750323956188,5.0,-6.64031982421875
107,0.00030517578125,3.257750323956188,5.0,-6.644287109375
108,0.007476806640625,3.257750323956188,5.0,-6.6448974609375
109,0.014190673828125,3.257750323956188,5.0,-6.64215087890625
110,0.020904541015625,3.257750323956188,5.0,-6.6412353515625
111,0.028076171875,3.257750323956188,5.0,-6.6436767578125
112,0.03631591796875,3.257750323956188,5.0,-6.64154052734375
113,0.04425048828125,3.259276202862438,5.0,-6.6424560546875
114,0.0537109375,3.259276202862438,5.0,-6.640625
115,0.06378173828125,3.259276202862438,5.0,-6.6424560546875
116,0.074462890625,3.259276202862438,5.0,-6.63482666015625
117,0.086822509765625,3.259276202862438,5.0,-6.63299560546875
118,0.10009765625,3.259276202862438,5.0,-6.6326904296875
119,0.114593505859375,3.259276202862438,5.0,-6.63238525390625
120,0.13031005859375,3.259276202862438,5.0,-6.630859375
121,0.146026611328125,3.265379718487438,5.0,-6.6314697265625
122,0.161895751953125,3.265379718487438,5.0,-6.630859375
123,0.177154541015625,3.265379718487438,5.0,-6.63055419921875
124,0.193023681640625,3.265379718487438,5.0,-6.63787841796875
125,0.2081298828125,3.265379718487438,5.0,-6.63421630859375
126,0.22308349609375,3.265379718487438,5.0,-6.63482666015625
127,0.238037109375,3.265379718487438,5.0,-6.63848876953125
128,0.251312255859375,3.265379718487438,5.0,-6.636962890625
129,0.26336669921875,3.260802081768688,5.0,-6.63330078125
130,0.274200439453125,3.260802081768688,5.0,-6.63238525390625
131,0.283355712890625,3.260802081768688,5.0,-6.636962890625
132,0.290374755859375,3.260802081768688,5.0,-6.6351318359375
133,0.2947998046875,3.260802081768688,5.0,-6.6351318359375
134,0.29510498046875,3.260802081768688,5.0,-6.6351318359375
135,0.29052734375,3.260802081768688,5.0,-6.634521484375
136,0.279693603515625,3.260802081768688,5.0,-6.636962890625
137,0.2630615234375,3.257750323956188,5.0,-6.63421630859375
138,0.240478515625,3.257750323956188,5.0,-6.6339111328125
139,0.21148681640625,3.257750323956188,5.0,-6.63818359375
140,0.1788330078125,3.257750323956188,5.0,-6.6339111328125
141,0.14373779296875,3.257750323956188,5.0,-6.6326904296875
142,0.107879638671875,3.257750323956188,5.0,-6.634521484375
143,0.07049560546875,3.257750323956188,5.0,-6.63543701171875
144,0.035552978515625,3.257750323956188,5.0,-6.63543701171875
145,0.0030517578125,3.259276202862438,5.0,-6.63848876953125
146,-0.027008056640625,3.259276202862438,5.0,-6.6436767578125
147,-0.053253173828125,3.259276202862438,5.0,-6.651611328125
148,-0.074462890625,3.259276202862438,5.0,-6.65802001953125
149,-0.0921630859375,3.259276202862438,5.0,-6.66778564453125
150,-0.1043701171875,3.259276202862438,5.0,-6.67266845703125
151,-0.113983154296875,3.259276202862438,5.0,-6.67266845703125
152,-0.120086669921875,3.259276202862438,5.0,-6.67633056640625
153,-0.124359130859375,3.257750323956188,5.0,-6.6766357421875
154,-0.12603759765625,3.257750323956188,5.0,-6.678466796875
155,-0.127716064453125,3.257750323956188,5.0,-6.67572021484375
156,-0.126495361328125,3.257750323956188,5.0,-6.68121337890625
157,-0.124664306640625,3.257750323956188,5.0,-6.678466796875
158,-0.12237548828125,3.257750323956188,5.0,-6.6796875
159,-0.11993408203125,3.257750323956188,5.0,-6.676025390625
160,-0.117034912109375,3.257750323956188,5.0,-6.67755126953125
161,-0.115203857421875,3.242491534893688,5.0,-6.676025390625
162,-0.113067626953125,3.242491534893688,5.0,-6.67388916015625
163,-0.110931396484375,3.242491534893688,5.0,-6.67205810546875
164,-0.109710693359375,3.242491534893688,5.0,-6.671142578125
165,-0.108489990234375,3.242491534893688,5.0,-6.6668701171875
166,-0.10711669921875,3.242491534893688,5.0,-6.66717529296875
167,-0.1068115234375,3.242491534893688,5.0,-6.666259765625
168,-0.1068115234375,3.242491534893688,5.0,-6.6656494140625
169,-0.106964111328125,3.248595050518688,5.0,-6.66656494140625
170,-0.10711669921875,3.248595050518688,5.0,-6.66656494140625
171,-0.107421875,3.248595050518688,5.0,-6.6668701171875
172,-0.1080322265625,3.248595050518688,5.0,-6.66839599609375
173,-0.1080322265625,3.248595050518688,5.0,-6.671142578125
174,-0.10711669921875,3.248595050518688,5.0,-6.67266845703125
175,-0.105743408203125,3.248595050518688,5.0,-6.6705322265625
176,-0.104827880859375,3.248595050518688,5.0,-6.67205810546875
177,-0.10345458984375,3.248595050518688,5.0,-6.67083740234375
178,-0.101776123046875,3.248595050518688,5.0,-6.66839599609375
179,-0.100555419921875,3.248595050518688,5.0,-6.66748046875
180,-0.0994873046875,3.248595050518688,5.0,-6.67205810546875
181,-0.097198486328125,3.248595050518688,5.0,-6.66717529296875
182,-0.09613037109375,3.248595050518688,5.0,-6.66656494140625
183,-0.093536376953125,3.248595050518688,5.0,-6.66656494140625
184,-0.0909423828125,3.248595050518688,5.0,-6.66412353515625
185,-0.089569091796875,3.240965655987438,5.0,-6.6632080078125
186,-0.087738037109375,3.240965655987438,5.0,-6.66412353515625
187,-0.086517333984375,3.240965655987438,5.0,-6.6632080078125
188,-0.0848388671875,3.240965655987438,5.0,-6.66229248046875
189,-0.0836181640625,3.240965655987438,5.0,-6.66717529296875
190,-0.082244873046875,3.240965655987438,5.0,-6.66473388671875
191,-0.081024169921875,3.240965655987438,5.0,-6.6650390625
192,-0.080718994140625,3.240965655987438,5.0,-6.66656494140625
193,-0.07904052734375,3.248595050518688,5.0,-6.66748046875
194,-0.0775146484375,3.248595050518688,5.0,-6.66351318359375
195,-0.076141357421875,3.248595050518688,5.0,-6.65985107421875
196,-0.0738525390625,3.248595050518688,5.0,-6.6650390625
197,-0.071563720703125,3.248595050518688,5.0,-6.66259765625
198,-0.068817138671875,3.248595050518688,5.0,-6.66107177734375
199,-0.065155029296875,3.248595050518688,5.0,-6.66107177734375
200,-0.062713623046875,3.248595050518688,5.0,-6.65802001953125
201,-0.06011962890625,3.251646808331188,5.0,-6.66168212890625
202,-0.057830810546875,3.251646808331188,5.0,-6.65740966796875
203,-0.05645751953125,3.251646808331188,5.0,-6.656494140625
204,-0.055999755859375,3.251646808331188,5.0,-6.6583251953125
205,-0.05615234375,3.251646808331188,5.0,-6.6552734375
206,-0.05767822265625,3.251646808331188,5.0,-6.65313720703125
207,-0.05889892578125,3.251646808331188,5.0,-6.65252685546875
208,-0.06011962890625,3.251646808331188,5.0,-6.65374755859375
209,-0.0604248046875,3.250120929424938,5.0,-6.6534423828125
210,-0.06134033203125,3.250120929424938,5.0,-6.65130615234375
211,-0.062255859375,3.250120929424938,5.0,-6.65313720703125
212,-0.062255859375,3.250120929424938,5.0,-6.65374755859375
213,-0.06103515625,3.250120929424938,5.0,-6.6552734375
214,-0.06072998046875,3.250120929424938,5.0,-6.65771484375
215,-0.059356689453125,3.250120929424938,5.0,-6.65863037109375
216,-0.058135986328125,3.250120929424938,5.0,-6.65740966796875
217,-0.056610107421875,3.248595050518688,5.0,-6.65771484375
218,-0.054931640625,3.248595050518688,5.0,-6.65740966796875
219,-0.053558349609375,3.248595050518688,5.0,-6.654052734375
220,-0.05218505859375,3.248595050518688,5.0,-6.65283203125
221,-0.050201416015625,3.248595050518688,5.0,-6.656494140625
222,-0.048675537109375,3.248595050518688,5.0,-6.6583251953125
223,-0.0469970703125,3.248595050518688,5.0,-6.6571044921875
224,-0.045166015625,3.248595050518688,5.0,-6.6552734375
225,-0.04364013671875,3.247069171612438,5.0,-6.65679931640625
226,-0.04241943359375,3.247069171612438,5.0,-6.65435791015625
227,-0.03997802734375,3.247069171612438,5.0,-6.65496826171875
228,-0.0372314453125,3.247069171612438,5.0,-6.6510009765625
229,-0.035858154296875,3.247069171612438,5.0,-6.65283203125
230,-0.033721923828125,3.247069171612438,5.0,-6.646728515625
231,-0.03143310546875,3.247069171612438,5.0,-6.6436767578125
232,-0.028839111328125,3.247069171612438,5.0,-6.64306640625
233,-0.026702880859375,3.251646808331188,5.0,-6.64337158203125
234,-0.023956298828125,3.251646808331188,5.0,-6.64276123046875
235,-0.022735595703125,3.251646808331188,5.0,-6.64215087890625
236,-0.0213623046875,3.251646808331188,5.0,-6.641845703125
237,-0.020294189453125,3.251646808331188,5.0,-6.64154052734375
238,-0.01953125,3.251646808331188,5.0,-6.64764404296875
239,-0.01983642578125,3.251646808331188,5.0,-6.6485595703125
240,-0.020294189453125,3.251646808331188,5.0,-6.6461181640625
241,-0.02166748046875,3.247069171612438,5.0,-6.64825439453125
242,-0.022735595703125,3.247069171612438,5.0,-6.64825439453125
243,-0.024261474609375,3.247069171612438,5.0,-6.64947509765625
244,-0.025482177734375,3.247069171612438,5.0,-6.646728515625
245,-0.025634765625,3.247069171612438,5.0,-6.6522216796875
246,-0.025787353515625,3.247069171612438,5.0,-6.65069580078125
247,-0.025787353515625,3.247069171612438,5.0,-6.65069580078125
248,-0.02532958984375,3.247069171612438,5.0,-6.64794921875
249,-0.025177001953125,3.248595050518688,5.0,-6.65008544921875
250,-0.024261474609375,3.248595050518688,5.0,-6.6473388671875
251,-0.021514892578125,3.248595050518688,5.0,-6.6461181640625
252,-0.019073486328125,3.248595050518688,5.0,-6.64520263671875
253,-0.016632080078125,3.248595050518688,5.0,-6.6448974609375
254,-0.0140380859375,3.248595050518688,5.0,-6.64031982421875
255,-0.0128173828125,3.248595050518688,5.0,-6.639404296875
256,-0.010986328125,3.248595050518688,5.0,-6.6400146484375
257,-0.009613037109375,3.247069171612438,5.0,-6.639404296875
258,-0.008544921875,3.247069171612438,5.0,-6.63970947265625
259,-0.008087158203125,3.247069171612438,5.0,-6.639404296875
260,-0.007171630859375,3.247069171612438,5.0,-6.63909912109375
261,-0.006103515625,3.247069171612438,5.0,-6.6387939453125
262,-0.005645751953125,3.247069171612438,5.0,-6.6436767578125
263,-0.004425048828125,3.247069171612438,5.0,-6.64520263671875
264,-0.00396728515625,3.247069171612438,5.0,-6.64398193359375
265,-0.00335693359375,3.245543292706188,5.0,-6.6436767578125
266,-0.00396728515625,3.245543292706188,5.0,-6.6436767578125
267,-0.00335693359375,3.245543292706188,5.0,-6.64642333984375
268,-0.003509521484375,3.245543292706188,5.0,-6.64276123046875
269,-0.00274658203125,3.245543292706188,5.0,-6.64703369140625
270,-0.002288818359375,3.245543292706188,5.0,-6.64276123046875
271,-0.001220703125,3.245543292706188,5.0,-6.640625
272,0.000762939453125,3.245543292706188,5.0,-6.64154052734375
273,0.001983642578125,3.247069171612438,5.0,-6.64031982421875
274,0.00396728515625,3.247069171612438,5.0,-6.63848876953125
275,0.004730224609375,3.247069171612438,5.0,-6.63787841796875
276,0.006256103515625,3.247069171612438,5.0,-6.63787841796875
277,0.007476806640625,3.247069171612438,5.0,-6.6375732421875
278,0.007476806640625,3.247069171612438,5.0,-6.64520263671875
279,0.007781982421875,3.247069171612438,5.0,-6.644287109375
280,0.00732421875,3.247069171612438,5.0,-6.64276123046875
281,0.007476806640625,3.248595050518688,5.0,-6.64520263671875
282,0.0079345703125,3.248595050518688,5.0,-6.6455078125
283,0.007781982421875,3.248595050518688,5.0,-6.64520263671875
284,0.008544921875,3.248595050518688,5.0,-6.6424560546875
285,0.008697509765625,3.248595050518688,5.0,-6.6455078125
286,0.0103759765625,3.248595050518688,5.0,-6.64642333984375
287,0.0103759765625,3.248595050518688,5.0,-6.6436767578125
288,0.011138916015625,3.248595050518688,5.0,-6.644287109375
289,0.01129150390625,3.250120929424938,5.0,-6.64642333984375
290,0.01190185546875,3.250120929424938,5.0,-6.64520263671875
291,0.013580322265625,3.250120929424938,5.0,-6.64520263671875
292,0.015869140625,3.250120929424938,5.0,-6.644287109375
293,0.017242431640625,3.250120929424938,5.0,-6.64764404296875
294,0.01953125,3.250120929424938,5.0,-6.63909912109375
295,0.021820068359375,3.250120929424938,5.0,-6.63726806640625
296,0.024566650390625,3.250120929424938,5.0,-6.636962890625
297,0.027008056640625,3.247069171612438,5.0,-6.63665771484375
298,0.030364990234375,3.247069171612438,5.0,-6.63787841796875
299,0.033416748046875,3.247069171612438,5.0,-6.63726806640625
300,0.035400390625,3.247069171612438,5.0,-6.636962890625
301,0.037384033203125,3.247069171612438,5.0,-6.63726806640625
302,0.038299560546875,3.247069171612438,5.0,-6.6387939453125
303,0.0396728515625,3.247069171612438,5.0,-6.64093017578125
304,0.040435791015625,3.247069171612438,5.0,-6.64154052734375
305,0.041656494140625,3.244017413799938,5.0,-6.639404296875
306,0.0421142578125,3.244017413799938,5.0,-6.64337158203125
307,0.04180908203125,3.244017413799938,5.0,-6.641845703125
308,0.042266845703125,3.244017413799938,5.0,-6.6424560546875
309,0.04302978515625,3.244017413799938,5.0,-6.63970947265625
310,0.043182373046875,3.244017413799938,5.0,-6.644287109375
311,0.044097900390625,3.244017413799938,5.0,-6.63970947265625
312,0.0445556640625,3.244017413799938,5.0,-6.63909912109375
313,0.04547119140625,3.248595050518688,5.0,-6.6387939453125
314,0.0469970703125,3.248595050518688,5.0,-6.639404296875
315,0.04791259765625,3.248595050518688,5.0,-6.6387939453125
316,0.048980712890625,3.248595050518688,5.0,-6.63604736328125
317,0.050811767578125,3.248595050518688,5.0,-6.63726806640625
318,0.05218505859375,3.248595050518688,5.0,-6.6375732421875
319,0.0531005859375,3.248595050518688,5.0,-6.64276123046875
320,0.05462646484375,3.248595050518688,5.0,-6.64215087890625
321,0.05523681640625,3.242491534893688,5.0,-6.64459228515625
322,0.056304931640625,3.242491534893688,5.0,-6.64764404296875
323,0.05767822265625,3.242491534893688,5.0,-6.6473388671875
324,0.058746337890625,3.242491534893688,5.0,-6.64398193359375
325,0.0604248046875,3.242491534893688,5.0,-6.641845703125
326,0.06072998046875,3.242491534893688,5.0,-6.6455078125
327,0.061798095703125,3.242491534893688,5.0,-6.646728515625
328,0.062103271484375,3.242491534893688,5.0,-6.64398193359375
329,0.0616455078125,3.248595050518688,5.0,-6.6461181640625
330,0.06195068359375,3.248595050518688,5.0,-6.64764404296875
331,0.062103271484375,3.248595050518688,5.0,-6.64337158203125
332,0.06103515625,3.248595050518688,5.0,-6.63238525390625
333,0.059967041015625,3.248595050518688,5.0,-6.6259765625
334,0.059051513671875,3.248595050518688,5.0,-6.62139892578125
335,0.057373046875,3.248595050518688,5.0,-6.61376953125
336,0.056610107421875,3.248595050518688,5.0,-6.60888671875
337,0.055694580078125,3.244017413799938,5.0,-6.6033935546875
338,0.05462646484375,3.244017413799938,5.0,-6.5972900390625
339,0.054931640625,3.244017413799938,5.0,-6.5911865234375
340,0.054168701171875,3.244017413799938,5.0,-6.58355712890625
341,0.054168701171875,3.244017413799938,5.0,-6.57806396484375
342,0.05462646484375,3.244017413799938,5.0,-6.5728759765625
343,0.05462646484375,3.244017413799938,5.0,-6.5667724609375
344,0.05462646484375,3.244017413799938,5.0,-6.56219482421875
345,0.0531005859375,3.248595050518688,5.0,-6.55426025390625
346,0.052490234375,3.248595050518688,5.0,-6.549072265625
347,0.050201416015625,3.248595050518688,5.0,-6.54266357421875
348,0.04913330078125,3.248595050518688,5.0,-6.53778076171875
349,0.04669189453125,3.248595050518688,5.0,-6.53076171875
350,0.04486083984375,3.248595050518688,5.0,-6.52496337890625
351,0.0433349609375,3.248595050518688,5.0,-6.51702880859375
352,0.042877197265625,3.248595050518688,5.0,-6.51031494140625
353,0.0421142578125,3.250120929424938,5.0,-6.50543212890625
354,0.041046142578125,3.250120929424938,5.0,-6.497802734375
355,0.040435791015625,3.250120929424938,5.0,-6.49322509765625
356,0.03936767578125,3.250120929424938,5.0,-6.4862060546875
357,0.0390625,3.250120929424938,5.0,-6.4801025390625
358,0.037841796875,3.250120929424938,5.0,-6.47430419921875
359,0.03631591796875,3.250120929424938,5.0,-6.46636962890625
360,0.035552978515625,3.250120929424938,5.0,-6.46148681640625
361,0.035400390625,3.248595050518688,5.0,-6.45416259765625
362,0.034332275390625,3.248595050518688,5.0,-6.44622802734375
363,0.033416748046875,3.248595050518688,5.0,-6.44073486328125
364,0.0341796875,3.248595050518688,5.0,-6.43402099609375
365,0.033111572265625,3.248595050518688,5.0,-6.42730712890625
366,0.031280517578125,3.248595050518688,5.0,-6.42181396484375
367,0.029754638671875,3.248595050518688,5.0,-6.4141845703125
368,0.027313232421875,3.248595050518688,5.0,-6.4068603515625
369,0.025482177734375,3.245543292706188,5.0,-6.40106201171875
370,0.0238037109375,3.245543292706188,5.0,-6.39556884765625
371,0.021209716796875,3.245543292706188,5.0,-6.38702392578125
372,0.0201416015625,3.245543292706188,5.0,-6.3800048828125
373,0.019378662109375,3.245543292706188,5.0,-6.3726806640625
374,0.01953125,3.245543292706188,5.0,-6.36749267578125
375,0.017852783203125,3.245543292706188,5.0,-6.3604736328125
376,0.017852783203125,3.245543292706188,5.0,-6.35345458984375
377,0.0164794921875,3.247069171612438,5.0,-6.34765625
378,0.0164794921875,3.247069171612438,5.0,-6.3385009765625
379,0.0152587890625,3.247069171612438,5.0,-6.3330078125
380,0.0140380859375,3.247069171612438,5.0,-6.3262939453125
381,0.013275146484375,3.247069171612438,5.0,-6.318359375
382,0.01251220703125,3.247069171612438,5.0,-6.31317138671875
383,0.010833740234375,3.247069171612438,5.0,-6.30340576171875
384,0.009002685546875,3.247069171612438,5.0,-6.29852294921875
385,0.008392333984375,3.247069171612438,5.0,-6.29241943359375
386,0.0067138671875,3.247069171612438,5.0,-6.2847900390625
387,0.004730224609375,3.247069171612438,5.0,-6.27838134765625
388,0.00274658203125,3.247069171612438,5.0,-6.26922607421875
389,-0.00030517578125,3.247069171612438,5.0,-6.263427734375
390,-0.0030517578125,3.247069171612438,5.0,-6.25762939453125
391,-0.004730224609375,3.247069171612438,5.0,-6.25030517578125
392,-0.0079345703125,3.247069171612438,5.0,-6.24267578125
393,-0.010223388671875,3.244017413799938,5.0,-6.23504638671875
394,-0.011444091796875,3.244017413799938,5.0,-6.23046875
395,-0.013427734375,3.244017413799938,5.0,-6.220703125
396,-0.013885498046875,3.244017413799938,5.0,-6.21551513671875
397,-0.0146484375,3.244017413799938,5.0,-6.20574951171875
398,-0.0146484375,3.244017413799938,5.0,-6.199951171875
399,-0.0146484375,3.244017413799938,5.0,-6.19384765625
400,-0.014495849609375,3.244017413799938,5.0,-6.18621826171875
401,-0.0146484375,3.253172687237438,5.0,-6.17950439453125
402,-0.0146484375,3.253172687237438,5.0,-6.171875
403,-0.015411376953125,3.253172687237438,5.0,-6.1663818359375
404,-0.016632080078125,3.253172687237438,5.0,-6.15692138671875
405,-0.018157958984375,3.253172687237438,5.0,-6.15203857421875
406,-0.019378662109375,3.253172687237438,5.0,-6.14166259765625
407,-0.0213623046875,3.253172687237438,5.0,-6.136474609375
408,-0.023345947265625,3.253172687237438,5.0,-6.13067626953125
409,-0.02410888671875,3.244017413799938,5.0,-6.1224365234375
410,-0.025634765625,3.244017413799938,5.0,-6.11602783203125
411,-0.026397705078125,3.244017413799938,5.0,-6.1090087890625
412,-0.0274658203125,3.244017413799938,5.0,-6.1016845703125
413,-0.028076171875,3.244017413799938,5.0,-6.09405517578125
414,-0.028228759765625,3.244017413799938,5.0,-6.08795166015625
415,-0.028533935546875,3.244017413799938,5.0,-6.07879638671875
416,-0.029296875,3.244017413799938,5.0,-6.07391357421875
417,-0.029296875,3.247069171612438,5.0,-6.065673828125
418,-0.030670166015625,3.247069171612438,5.0,-6.05987548828125
419,-0.030670166015625,3.247069171612438,5.0,-6.0504150390625
420,-0.029754638671875,3.247069171612438,5.0,-6.0443115234375
421,-0.028839111328125,3.247069171612438,5.0,-6.03485107421875
422,-0.027618408203125,3.247069171612438,5.0,-6.0302734375
423,-0.026397705078125,3.247069171612438,5.0,-6.0211181640625
424,-0.024871826171875,3.247069171612438,5.0,-6.01470947265625
425,-0.0238037109375,3.248595050518688,5.0,-6.0076904296875
426,-0.02288818359375,3.248595050518688,5.0,-6.0003662109375
427,-0.022430419921875,3.248595050518688,5.0,-5.9930419921875
428,-0.021514892578125,3.248595050518688,5.0,-5.98480224609375
429,-0.02197265625,3.248595050518688,5.0,-5.97869873046875
430,-0.021820068359375,3.248595050518688,5.0,-5.97198486328125
431,-0.020751953125,3.248595050518688,5.0,-5.96405029296875
432,-0.020599365234375,3.248595050518688,5.0,-5.9564208984375
433,-0.019378662109375,3.250120929424938,5.0,-5.94940185546875
434,-0.018768310546875,3.250120929424938,5.0,-5.93994140625
435,-0.018463134765625,3.250120929424938,5.0,-5.93475341796875
436,-0.017852783203125,3.250120929424938,5.0,-5.9259033203125
437,-0.016326904296875,3.250120929424938,5.0,-5.92071533203125
438,-0.014190673828125,3.250120929424938,5.0,-5.91094970703125
439,-0.012664794921875,3.250120929424938,5.0,-5.90576171875
440,-0.0103759765625,3.250120929424938,5.0,-5.8953857421875
441,-0.007476806640625,3.250120929424938,5.0,-5.89111328125
442,-0.006561279296875,3.250120929424938,5.0,-5.88134765625
443,-0.003662109375,3.250120929424938,5.0,-5.8746337890625
444,-0.002899169921875,3.250120929424938,5.0,-5.86883544921875
445,-0.00213623046875,3.250120929424938,5.0,-5.8612060546875
446,-0.001983642578125,3.250120929424938,5.0,-5.85357666015625
447,-0.003662109375,3.250120929424938,5.0,-5.8465576171875
448,-0.005340576171875,3.250120929424938,5.0,-5.83984375
449,-0.007476806640625,3.245543292706188,5.0,-5.831298828125
450,-0.00885009765625,3.245543292706188,5.0,-5.82489013671875
451,-0.009765625,3.245543292706188,5.0,-5.8172607421875
452,-0.009765625,3.245543292706188,5.0,-5.81207275390625
453,-0.009765625,3.245543292706188,5.0,-5.8026123046875
454,-0.007781982421875,3.245543292706188,5.0,-5.797119140625
455,-0.0067138671875,3.245543292706188,5.0,-5.7879638671875
456,-0.0042724609375,3.245543292706188,5.0,-5.782470703125
457,-0.001678466796875,3.244017413799938,5.0,-5.77362060546875
458,0.000152587890625,3.244017413799938,5.0,-5.76751708984375
459,0.00213623046875,3.244017413799938,5.0,-5.76080322265625
460,0.004425048828125,3.244017413799938,5.0,-5.75286865234375
461,0.00579833984375,3.244017413799938,5.0,-5.745849609375
462,0.00732421875,3.244017413799938,5.0,-5.73822021484375
463,0.007781982421875,3.244017413799938,5.0,-5.7330322265625
464,0.007781982421875,3.244017413799938,5.0,-5.72357177734375
465,0.007476806640625,3.245543292706188,5.0,-5.718994140625
466,0.006561279296875,3.245543292706188,5.0,-5.7098388671875
467,0.00518798828125,3.245543292706188,5.0,-5.7037353515625
468,0.00396728515625,3.245543292706188,5.0,-5.697021484375
469,0.00274658203125,3.245543292706188,5.0,-5.68939208984375
470,0.002593994140625,3.245543292706188,5.0,-5.682373046875
471,0.00274658203125,3.245543292706188,5.0,-5.67352294921875
472,0.002899169921875,3.245543292706188,5.0,-5.6689453125
473,0.002593994140625,3.248595050518688,5.0,-5.6597900390625
474,0.00396728515625,3.248595050518688,5.0,-5.654296875
475,0.004730224609375,3.248595050518688,5.0,-5.6463623046875
476,0.00518798828125,3.248595050518688,5.0,-5.63995361328125
477,0.005950927734375,3.248595050518688,5.0,-5.63262939453125
478,0.007781982421875,3.248595050518688,5.0,-5.6256103515625
479,0.008087158203125,3.248595050518688,5.0,-5.61981201171875
480,0.008697509765625,3.248595050518688,5.0,-5.61187744140625
481,0.0079345703125,3.234862140362438,5.0,-5.60546875
482,0.007476806640625,3.234862140362438,5.0,-5.59844970703125
483,0.007476806640625,3.234862140362438,5.0,-5.59051513671875
484,0.00640869140625,3.234862140362438,5.0,-5.58502197265625
485,0.00640869140625,3.234862140362438,5.0,-5.57647705078125
486,0.005950927734375,3.234862140362438,5.0,-5.57098388671875
487,0.00518798828125,3.234862140362438,5.0,-5.5645751953125
488,0.0042724609375,3.234862140362438,5.0,-5.556640625
489,0.003509521484375,3.234862140362438,5.0,-5.550537109375
490,0.002593994140625,3.234862140362438,5.0,-5.54443359375
491,0.002899169921875,3.234862140362438,5.0,-5.537109375
492,0.002593994140625,3.234862140362438,5.0,-5.5291748046875
493,0.00274658203125,3.234862140362438,5.0,-5.52215576171875
494,0.00274658203125,3.234862140362438,5.0,-5.51727294921875
495,0.0030517578125,3.234862140362438,5.0,-5.51025390625
496,0.003509521484375,3.234862140362438,5.0,-5.50262451171875
497,0.003814697265625,3.234862140362438,5.0,-5.496826171875
498,0.00518798828125,3.234862140362438,5.0,-5.4901123046875
499,0.005950927734375,3.234862140362438,5.0,-5.48309326171875
500,0.006256103515625,3.234862140362438,5.0,-5.47576904296875
501,0.006561279296875,3.234862140362438,5.0,-5.4669189453125
502,0.006561279296875,3.234862140362438,5.0,-5.46234130859375
503,0.0054931640625,3.234862140362438,5.0,-5.455322265625
504,0.00457763671875,3.234862140362438,5.0,-5.44830322265625
505,0.00335693359375,3.233336261456188,5.0,-5.44281005859375
506,0.00244140625,3.233336261456188,5.0,-5.435791015625
507,0.0,3.233336261456188,5.0,-5.42816162109375
508,-0.00152587890625,3.233336261456188,5.0,-5.42327880859375
509,-0.0030517578125,3.233336261456188,5.0,-5.4156494140625
510,-0.003662109375,3.233336261456188,5.0,-5.40924072265625
511,-0.004119873046875,3.233336261456188,5.0,-5.40374755859375
512,-0.004730224609375,3.233336261456188,5.0,-5.396728515625
513,-0.00457763671875,3.234862140362438,5.0,-5.3900146484375
514,-0.004730224609375,3.234862140362438,5.0,-5.38330078125
515,-0.0048828125,3.234862140362438,5.0,-5.3778076171875
516,-0.00457763671875,3.234862140362438,5.0,-5.37200927734375
517,-0.004730224609375,3.234862140362438,5.0,-5.36468505859375
518,-0.004730224609375,3.234862140362438,5.0,-5.3594970703125
519,-0.0054931640625,3.234862140362438,5.0,-5.35247802734375
520,-0.005950927734375,3.234862140362438,5.0,-5.3448486328125
521,-0.007171630859375,3.237913898174938,5.0,-5.33905029296875
522,-0.0079345703125,3.237913898174938,5.0,-5.33477783203125
523,-0.009765625,3.237913898174938,5.0,-5.32806396484375
524,-0.01007080078125,3.237913898174938,5.0,-5.3204345703125
525,-0.009307861328125,3.237913898174938,5.0,-5.31463623046875
526,-0.009613037109375,3.237913898174938,5.0,-5.3082275390625
527,-0.009765625,3.237913898174938,5.0,-5.302734375
528,-0.009002685546875,3.237913898174938,5.0,-5.2960205078125
529,-0.008087158203125,3.234862140362438,5.0,-5.29022216796875
530,-0.008544921875,3.234862140362438,5.0,-5.28472900390625
531,-0.008392333984375,3.234862140362438,5.0,-5.27801513671875
532,-0.009613037109375,3.234862140362438,5.0,-5.2716064453125
533,-0.010223388671875,3.234862140362438,5.0,-5.26580810546875
534,-0.011138916015625,3.234862140362438,5.0,-5.2606201171875
535,-0.010833740234375,3.234862140362438,5.0,-5.2545166015625
536,-0.011138916015625,3.234862140362438,5.0,-5.24658203125
537,-0.011138916015625,3.237913898174938,5.0,-5.24139404296875
538,-0.0091552734375,3.237913898174938,5.0,-5.23651123046875
539,-0.00885009765625,3.237913898174938,5.0,-5.2294921875
540,-0.007171630859375,3.237913898174938,5.0,-5.224609375
541,-0.006256103515625,3.237913898174938,5.0,-5.21636962890625
542,-0.0048828125,3.237913898174938,5.0,-5.21148681640625
543,-0.003509521484375,3.237913898174938,5.0,-5.206298828125
544,-0.00274658203125,3.237913898174938,5.0,-5.20233154296875
545,-0.001678466796875,3.234862140362438,5.0,-5.19500732421875
546,-0.000762939453125,3.234862140362438,5.0,-5.19012451171875
547,0.000152587890625,3.234862140362438,5.0,-5.1824951171875
548,0.0006103515625,3.234862140362438,5.0,-5.177001953125
549,0.001068115234375,3.234862140362438,5.0,-5.172119140625
550,0.003204345703125,3.234862140362438,5.0,-5.1678466796875
551,0.004119873046875,3.234862140362438,5.0,-5.16021728515625
552,0.00701904296875,3.234862140362438,5.0,-5.15533447265625
553,0.0091552734375,3.233336261456188,5.0,-5.1507568359375
554,0.010833740234375,3.233336261456188,5.0,-5.14404296875
555,0.011749267578125,3.233336261456188,5.0,-5.13763427734375
556,0.01373291015625,3.233336261456188,5.0,-5.133056640625
557,0.014801025390625,3.233336261456188,5.0,-5.1275634765625
558,0.01739501953125,3.233336261456188,5.0,-5.1220703125
559,0.018310546875,3.233336261456188,5.0,-5.1165771484375
560,0.019378662109375,3.233336261456188,5.0,-5.11077880859375
561,0.021209716796875,3.233336261456188,5.0,-5.1055908203125
562,0.0213623046875,3.233336261456188,5.0,-5.1019287109375
563,0.022430419921875,3.233336261456188,5.0,-5.09674072265625
564,0.02288818359375,3.233336261456188,5.0,-5.091552734375
565,0.0225830078125,3.233336261456188,5.0,-5.08453369140625
566,0.023956298828125,3.233336261456188,5.0,-5.0787353515625
567,0.023956298828125,3.233336261456188,5.0,-5.07415771484375
568,0.023651123046875,3.233336261456188,5.0,-5.06927490234375
569,0.025177001953125,3.236388019268688,5.0,-5.06378173828125
570,0.026397705078125,3.236388019268688,5.0,-5.059814453125
571,0.02716064453125,3.236388019268688,5.0,-5.05462646484375
572,0.029754638671875,3.236388019268688,5.0,-5.048828125
573,0.030517578125,3.236388019268688,5.0,-5.04486083984375
574,0.031585693359375,3.236388019268688,5.0,-5.0396728515625
575,0.032196044921875,3.236388019268688,5.0,-5.0335693359375
576,0.032806396484375,3.236388019268688,5.0,-5.0299072265625
577,0.034942626953125,3.234862140362438,5.0,-5.02471923828125
578,0.036163330078125,3.234862140362438,5.0,-5.0201416015625
579,0.037994384765625,3.234862140362438,5.0,-5.0146484375
580,0.038909912109375,3.234862140362438,5.0,-5.0103759765625
581,0.0390625,3.234862140362438,5.0,-5.0042724609375
582,0.03814697265625,3.234862140362438,5.0,-5.00030517578125
583,0.03692626953125,3.234862140362438,5.0,-4.99786376953125
584,0.034942626953125,3.234862140362438,5.0,-4.99267578125
585,0.033111572265625,3.234862140362438,5.0,-4.9884033203125
586,0.03204345703125,3.234862140362438,5.0,-4.98321533203125
587,0.029296875,3.234862140362438,5.0,-4.97802734375
588,0.028228759765625,3.234862140362438,5.0,-4.97528076171875
589,0.026702880859375,3.234862140362438,5.0,-4.9700927734375
590,0.025177001953125,3.234862140362438,5.0,-4.96551513671875
591,0.0238037109375,3.234862140362438,5.0,-4.96063232421875
592,0.021820068359375,3.234862140362438,5.0,-4.95849609375
593,0.01953125,3.231810382549938,5.0,-4.95361328125
594,0.016632080078125,3.231810382549938,5.0,-4.94873046875
595,0.0146484375,3.231810382549938,5.0,-4.9444580078125
596,0.01190185546875,3.231810382549938,5.0,-4.94049072265625
597,0.009613037109375,3.231810382549938,5.0,-4.93865966796875
598,0.006866455078125,3.231810382549938,5.0,-4.93408203125
599,0.0042724609375,3.231810382549938,5.0,-4.9285888671875
600,0.001068115234375,3.231810382549938,5.0,-4.92584228515625
601,-0.00244140625,3.234862140362438,5.0,-4.92401123046875
602,-0.00701904296875,3.234862140362438,5.0,-4.9200439453125
603,-0.011138916015625,3.234862140362438,5.0,-4.91455078125
604,-0.01556396484375,3.234862140362438,5.0,-4.912109375
605,-0.020599365234375,3.234862140362438,5.0,-4.90997314453125
606,-0.025634765625,3.234862140362438,5.0,-4.906005859375
607,-0.030364990234375,3.234862140362438,5.0,-4.90447998046875
608,-0.035552978515625,3.234862140362438,5.0,-4.90203857421875
609,-0.040740966796875,3.236388019268688,5.0,-4.89898681640625
610,-0.04486083984375,3.236388019268688,5.0,-4.8944091796875
611,-0.04852294921875,3.236388019268688,5.0,-4.893798828125
612,-0.0506591796875,3.236388019268688,5.0,-4.88983154296875
613,-0.05157470703125,3.236388019268688,5.0,-4.88616943359375
614,-0.0518798828125,3.236388019268688,5.0,-4.8846435546875
615,-0.052032470703125,3.236388019268688,5.0,-4.881591796875
616,-0.05218505859375,3.236388019268688,5.0,-4.87945556640625
617,-0.052032470703125,3.234862140362438,5.0,-4.8748779296875
618,-0.051727294921875,3.234862140362438,5.0,-4.87518310546875
619,-0.05279541015625,3.234862140362438,5.0,-4.87030029296875
620,-0.053863525390625,3.234862140362438,5.0,-4.8675537109375
621,-0.055084228515625,3.234862140362438,5.0,-4.86541748046875
622,-0.055389404296875,3.234862140362438,5.0,-4.86358642578125
623,-0.05706787109375,3.234862140362438,5.0,-4.85992431640625
624,-0.056915283203125,3.234862140362438,5.0,-4.8577880859375
625,-0.05645751953125,3.233336261456188,5.0,-4.8565673828125
626,-0.055999755859375,3.233336261456188,5.0,-4.852294921875
627,-0.055084228515625,3.233336261456188,5.0,-4.85015869140625
628,-0.05462646484375,3.233336261456188,5.0,-4.8504638671875
629,-0.0537109375,3.233336261456188,5.0,-4.8455810546875
630,-0.053253173828125,3.233336261456188,5.0,-4.84466552734375
631,-0.052337646484375,3.233336261456188,5.0,-4.84222412109375
632,-0.05096435546875,3.233336261456188,5.0,-4.83917236328125
633,-0.049896240234375,3.230284503643688,5.0,-4.8388671875
634,-0.049591064453125,3.230284503643688,5.0,-4.83551025390625
635,-0.04852294921875,3.230284503643688,5.0,-4.83428955078125
636,-0.0482177734375,3.230284503643688,5.0,-4.83428955078125
637,-0.045928955078125,3.230284503643688,5.0,-4.83001708984375
638,-0.04486083984375,3.230284503643688,5.0,-4.8291015625
639,-0.043487548828125,3.230284503643688,5.0,-4.8284912109375
640,-0.0421142578125,3.230284503643688,5.0,-4.82696533203125
641,-0.04058837890625,3.233336261456188,5.0,-4.82391357421875
642,-0.0396728515625,3.233336261456188,5.0,-4.822998046875
643,-0.0396728515625,3.233336261456188,5.0,-4.8236083984375
644,-0.0396728515625,3.233336261456188,5.0,-4.8211669921875
645,-0.040283203125,3.233336261456188,5.0,-4.8187255859375
646,-0.04119873046875,3.233336261456188,5.0,-4.8187255859375
647,-0.042877197265625,3.233336261456188,5.0,-4.8193359375
648,-0.043792724609375,3.233336261456188,5.0,-4.81903076171875
649,-0.04425048828125,3.233336261456188,5.0,-4.81658935546875
650,-0.0445556640625,3.233336261456188,5.0,-4.81475830078125
651,-0.04425048828125,3.233336261456188,5.0,-4.8138427734375
652,-0.042877197265625,3.233336261456188,5.0,-4.81414794921875
653,-0.04119873046875,3.233336261456188,5.0,-4.8138427734375
654,-0.038909912109375,3.233336261456188,5.0,-4.81353759765625
655,-0.036468505859375,3.233336261456188,5.0,-4.81292724609375
656,-0.035247802734375,3.233336261456188,5.0,-4.81292724609375
657,-0.0335693359375,3.233336261456188,5.0,-4.81231689453125
658,-0.032501220703125,3.233336261456188,5.0,-4.81231689453125
659,-0.031280517578125,3.233336261456188,5.0,-4.81231689453125
660,-0.03021240234375,3.233336261456188,5.0,-4.81231689453125
661,-0.028839111328125,3.233336261456188,5.0,-4.81231689453125
662,-0.026397705078125,3.233336261456188,5.0,-4.81231689453125
663,-0.023345947265625,3.233336261456188,5.0,-4.81170654296875
664,-0.018463134765625,3.233336261456188,5.0,-4.8114013671875
665,-0.012664794921875,3.230284503643688,5.0,-4.8101806640625
666,-0.005645751953125,3.230284503643688,5.0,-4.8101806640625
667,0.001678466796875,3.230284503643688,5.0,-4.8101806640625
668,0.010223388671875,3.230284503643688,5.0,-4.8095703125
669,0.01861572265625,3.230284503643688,5.0,-4.80987548828125
670,0.0274658203125,3.230284503643688,5.0,-4.81048583984375
671,0.03692626953125,3.230284503643688,5.0,-4.810791015625
672,0.0457763671875,3.230284503643688,5.0,-4.81048583984375
673,0.05645751953125,3.234862140362438,5.0,-4.81414794921875
674,0.068206787109375,3.234862140362438,5.0,-4.81536865234375
675,0.08148193359375,3.234862140362438,5.0,-4.815673828125
676,0.095977783203125,3.234862140362438,5.0,-4.81536865234375
677,0.11138916015625,3.234862140362438,5.0,-4.81536865234375
678,0.1275634765625,3.234862140362438,5.0,-4.81781005859375
679,0.14404296875,3.234862140362438,5.0,-4.82086181640625
680,0.160064697265625,3.234862140362438,5.0,-4.82086181640625
681,0.1751708984375,3.233336261456188,5.0,-4.8211669921875
682,0.1910400390625,3.233336261456188,5.0,-4.82513427734375
683,0.20660400390625,3.233336261456188,5.0,-4.82574462890625
684,0.2215576171875,3.233336261456188,5.0,-4.82635498046875
685,0.236358642578125,3.233336261456188,5.0,-4.82818603515625
686,0.25054931640625,3.233336261456188,5.0,-4.83062744140625
687,0.26458740234375,3.233336261456188,5.0,-4.83184814453125
688,0.27557373046875,3.233336261456188,5.0,-4.832763671875
689,0.28472900390625,3.234862140362438,5.0,-4.835205078125
690,0.292205810546875,3.234862140362438,5.0,-4.8370361328125
691,0.297393798828125,3.234862140362438,5.0,-4.8406982421875
692,0.297393798828125,3.234862140362438,5.0,-4.84130859375
693,0.294036865234375,3.234862140362438,5.0,-4.84405517578125
694,0.284576416015625,3.234862140362438,5.0,-4.84527587890625
695,0.269012451171875,3.234862140362438,5.0,-4.84619140625
696,0.24627685546875,3.234862140362438,5.0,-4.8504638671875
697,0.218353271484375,3.234862140362438,5.0,-4.85198974609375
698,0.185546875,3.234862140362438,5.0,-4.85626220703125
699,0.14923095703125,3.234862140362438,5.0,-4.85626220703125
700,0.111846923828125,3.234862140362438,5.0,-4.8602294921875
701,0.075225830078125,3.234862140362438,5.0,-4.8602294921875
702,0.039825439453125,3.234862140362438,5.0,-4.86541748046875
703,0.00640869140625,3.234862140362438,5.0,-4.86480712890625
704,-0.023345947265625,3.234862140362438,5.0,-4.87091064453125
705,-0.050811767578125,3.233336261456188,5.0,-4.87640380859375
706,-0.072784423828125,3.233336261456188,5.0,-4.8809814453125
707,-0.091094970703125,3.233336261456188,5.0,-4.8876953125
708,-0.10528564453125,3.233336261456188,5.0,-4.8907470703125
709,-0.115509033203125,3.233336261456188,5.0,-4.8968505859375
710,-0.122528076171875,3.233336261456188,5.0,-4.90081787109375
711,-0.128173828125,3.233336261456188,5.0,-4.903564453125
712,-0.131072998046875,3.233336261456188,5.0,-4.90814208984375
713,-0.13092041015625,3.237913898174938,5.0,-4.910888671875
714,-0.130157470703125,3.237913898174938,5.0,-4.913330078125
715,-0.128631591796875,3.237913898174938,5.0,-4.9176025390625
716,-0.125885009765625,3.237913898174938,5.0,-4.91973876953125
717,-0.12359619140625,3.237913898174938,5.0,-4.9212646484375
718,-0.12115478515625,3.237913898174938,5.0,-4.9261474609375
719,-0.1190185546875,3.237913898174938,5.0,-4.92919921875
720,-0.11627197265625,3.237913898174938,5.0,-4.93316650390625
721,-0.1141357421875,3.233336261456188,5.0,-4.93499755859375
722,-0.112152099609375,3.233336261456188,5.0,-4.9395751953125
723,-0.11138916015625,3.233336261456188,5.0,-4.9420166015625
724,-0.1104736328125,3.233336261456188,5.0,-4.9468994140625
725,-0.109405517578125,3.233336261456188,5.0,-4.94964599609375
726,-0.108184814453125,3.233336261456188,5.0,-4.95391845703125
727,-0.10772705078125,3.233336261456188,5.0,-4.95849609375
728,-0.108184814453125,3.233336261456188,5.0,-4.96124267578125
729,-0.1068115234375,3.234862140362438,5.0,-4.9658203125
730,-0.10650634765625,3.234862140362438,5.0,-4.970703125
731,-0.10650634765625,3.234862140362438,5.0,-4.97344970703125
732,-0.105743408203125,3.234862140362438,5.0,-4.97802734375
733,-0.105743408203125,3.234862140362438,5.0,-4.9822998046875
734,-0.104827880859375,3.234862140362438,5.0,-4.9871826171875
735,-0.103302001953125,3.234862140362438,5.0,-4.99053955078125
736,-0.102386474609375,3.234862140362438,5.0,-4.993896484375
737,-0.101165771484375,3.233336261456188,5.0,-4.9993896484375
738,-0.099029541015625,3.233336261456188,5.0,-5.003662109375
739,-0.09765625,3.233336261456188,5.0,-5.0067138671875
740,-0.095062255859375,3.233336261456188,5.0,-5.010986328125
741,-0.093536376953125,3.233336261456188,5.0,-5.01434326171875
742,-0.091094970703125,3.233336261456188,5.0,-5.01953125
743,-0.089111328125,3.233336261456188,5.0,-5.0250244140625
744,-0.0872802734375,3.233336261456188,5.0,-5.029296875
745,-0.08544921875,3.230284503643688,5.0,-5.0335693359375
746,-0.084991455078125,3.230284503643688,5.0,-5.0390625
747,-0.084381103515625,3.230284503643688,5.0,-5.0433349609375
748,-0.084228515625,3.230284503643688,5.0,-5.048828125
749,-0.084228515625,3.230284503643688,5.0,-5.0543212890625
750,-0.084228515625,3.230284503643688,5.0,-5.05645751953125
751,-0.084075927734375,3.230284503643688,5.0,-5.06195068359375
752,-0.083770751953125,3.230284503643688,5.0,-5.068359375
753,-0.08331298828125,3.233336261456188,5.0,-5.07354736328125
754,-0.081939697265625,3.233336261456188,5.0,-5.078125
755,-0.08056640625,3.233336261456188,5.0,-5.08209228515625
756,-0.07965087890625,3.233336261456188,5.0,-5.08697509765625
757,-0.077362060546875,3.233336261456188,5.0,-5.0921630859375
758,-0.077056884765625,3.233336261456188,5.0,-5.096435546875
759,-0.075531005859375,3.233336261456188,5.0,-5.101318359375
760,-0.074615478515625,3.233336261456188,5.0,-5.10589599609375
761,-0.074310302734375,3.233336261456188,5.0,-5.111083984375
762,-0.073699951171875,3.233336261456188,5.0,-5.11627197265625
763,-0.072784423828125,3.233336261456188,5.0,-5.1226806640625
764,-0.0732421875,3.233336261456188,5.0,-5.128173828125
765,-0.0732421875,3.233336261456188,5.0,-5.13397216796875
766,-0.072479248046875,3.233336261456188,5.0,-5.137939453125
767,-0.07171630859375,3.233336261456188,5.0,-5.142822265625
768,-0.072021484375,3.233336261456188,5.0,-5.1483154296875
769,-0.070648193359375,3.228758624737438,5.0,-5.15533447265625
770,-0.069427490234375,3.228758624737438,5.0,-5.1593017578125
771,-0.06744384765625,3.228758624737438,5.0,-5.16357421875
772,-0.065155029296875,3.228758624737438,5.0,-5.16876220703125
773,-0.06317138671875,3.228758624737438,5.0,-5.1751708984375
774,-0.0616455078125,3.228758624737438,5.0,-5.18157958984375
775,-0.060272216796875,3.228758624737438,5.0,-5.185546875
776,-0.058746337890625,3.228758624737438,5.0,-5.19134521484375
777,-0.057830810546875,3.234862140362438,5.0,-5.19683837890625
778,-0.05615234375,3.234862140362438,5.0,-5.201416015625
779,-0.05523681640625,3.234862140362438,5.0,-5.20721435546875
780,-0.05340576171875,3.234862140362438,5.0,-5.21331787109375
781,-0.051727294921875,3.234862140362438,5.0,-5.2191162109375
782,-0.04974365234375,3.234862140362438,5.0,-5.22430419921875
783,-0.04852294921875,3.234862140362438,5.0,-5.23040771484375
784,-0.04730224609375,3.234862140362438,5.0,-5.23529052734375
785,-0.045928955078125,3.236388019268688,5.0,-5.2423095703125
786,-0.044403076171875,3.236388019268688,5.0,-5.247802734375
787,-0.0445556640625,3.236388019268688,5.0,-5.252685546875
788,-0.04425048828125,3.236388019268688,5.0,-5.257568359375
789,-0.04425048828125,3.236388019268688,5.0,-5.26458740234375
790,-0.043487548828125,3.236388019268688,5.0,-5.2691650390625
791,-0.04241943359375,3.236388019268688,5.0,-5.2764892578125
792,-0.040283203125,3.236388019268688,5.0,-5.28167724609375
793,-0.037841796875,3.233336261456188,5.0,-5.28594970703125
794,-0.035552978515625,3.233336261456188,5.0,-5.29296875
795,-0.033416748046875,3.233336261456188,5.0,-5.29937744140625
796,-0.031585693359375,3.233336261456188,5.0,-5.30487060546875
797,-0.029144287109375,3.233336261456188,5.0,-5.3094482421875
798,-0.027618408203125,3.233336261456188,5.0,-5.31707763671875
799,-0.026092529296875,3.233336261456188,5.0,-5.32135009765625
800,-0.0244140625,3.233336261456188,5.0,-5.32806396484375
801,-0.02471923828125,3.234862140362438,5.0,-5.333251953125
802,-0.024871826171875,3.234862140362438,5.0,-5.3375244140625
803,-0.0262451171875,3.234862140362438,5.0,-5.34423828125
804,-0.027313232421875,3.234862140362438,5.0,-5.3521728515625
805,-0.0286865234375,3.234862140362438,5.0,-5.35919189453125
806,-0.030059814453125,3.234862140362438,5.0,-5.36376953125
807,-0.032196044921875,3.234862140362438,5.0,-5.37078857421875
808,-0.033111572265625,3.234862140362438,5.0,-5.37811279296875
809,-0.034027099609375,3.234862140362438,5.0,-5.3839111328125
810,-0.03448486328125,3.234862140362438,5.0,-5.38818359375
811,-0.033416748046875,3.234862140362438,5.0,-5.3955078125
812,-0.03204345703125,3.234862140362438,5.0,-5.4022216796875
813,-0.030975341796875,3.234862140362438,5.0,-5.40679931640625
814,-0.03082275390625,3.234862140362438,5.0,-5.41290283203125
815,-0.0299072265625,3.234862140362438,5.0,-5.4193115234375
816,-0.029296875,3.234862140362438,5.0,-5.42633056640625
817,-0.02838134765625,3.234862140362438,5.0,-5.43212890625
818,-0.02716064453125,3.234862140362438,5.0,-5.43853759765625
819,-0.025787353515625,3.234862140362438,5.0,-5.44403076171875
820,-0.024261474609375,3.234862140362438,5.0,-5.45074462890625
821,-0.023193359375,3.234862140362438,5.0,-5.4547119140625
822,-0.02197265625,3.234862140362438,5.0,-5.46234130859375
823,-0.021209716796875,3.234862140362438,5.0,-5.4669189453125
824,-0.020599365234375,3.234862140362438,5.0,-5.47393798828125
825,-0.02044677734375,3.233336261456188,5.0,-5.48004150390625
826,-0.01953125,3.233336261456188,5.0,-5.4864501953125
827,-0.018463134765625,3.233336261456188,5.0,-5.4937744140625
828,-0.01739501953125,3.233336261456188,5.0,-5.499267578125
829,-0.01556396484375,3.233336261456188,5.0,-5.5047607421875
830,-0.01373291015625,3.233336261456188,5.0,-5.51055908203125
831,-0.0115966796875,3.233336261456188,5.0,-5.51727294921875
832,-0.009002685546875,3.233336261456188,5.0,-5.52398681640625
833,-0.0067138671875,3.234862140362438,5.0,-5.53009033203125
834,-0.00396728515625,3.234862140362438,5.0,-5.53680419921875
835,-0.00152587890625,3.234862140362438,5.0,-5.54168701171875
836,-0.000457763671875,3.234862140362438,5.0,-5.54931640625
837,0.00213623046875,3.234862140362438,5.0,-5.555419921875
838,0.003204345703125,3.234862140362438,5.0,-5.5621337890625
839,0.00457763671875,3.234862140362438,5.0,-5.56640625
840,0.00518798828125,3.234862140362438,5.0,-5.57281494140625
841,0.005035400390625,3.234862140362438,5.0,-5.5816650390625
842,0.00640869140625,3.234862140362438,5.0,-5.58685302734375
843,0.00701904296875,3.234862140362438,5.0,-5.59356689453125
844,0.00823974609375,3.234862140362438,5.0,-5.59814453125
845,0.009307861328125,3.234862140362438,5.0,-5.6060791015625
846,0.01220703125,3.234862140362438,5.0,-5.611572265625
847,0.01373291015625,3.234862140362438,5.0,-5.61798095703125
848,0.01495361328125,3.234862140362438,5.0,-5.62591552734375
849,0.01617431640625,3.234862140362438,5.0,-5.63079833984375
850,0.01708984375,3.234862140362438,5.0,-5.63751220703125
851,0.018310546875,3.234862140362438,5.0,-5.64300537109375
852,0.018768310546875,3.234862140362438,5.0,-5.6500244140625
853,0.018768310546875,3.234862140362438,5.0,-5.6561279296875
854,0.018768310546875,3.234862140362438,5.0,-5.66253662109375
855,0.01983642578125,3.234862140362438,5.0,-5.670166015625
856,0.0201416015625,3.234862140362438,5.0,-5.6756591796875
857,0.020294189453125,3.231810382549938,5.0,-5.6817626953125
858,0.020904541015625,3.231810382549938,5.0,-5.689697265625
859,0.02227783203125,3.231810382549938,5.0,-5.694580078125
860,0.023956298828125,3.231810382549938,5.0,-5.70037841796875
861,0.025634765625,3.231810382549938,5.0,-5.70709228515625
862,0.0274658203125,3.231810382549938,5.0,-5.714111328125
863,0.029754638671875,3.231810382549938,5.0,-5.7196044921875
864,0.031890869140625,3.231810382549938,5.0,-5.726318359375
865,0.0335693359375,3.233336261456188,5.0,-5.7318115234375
866,0.0347900390625,3.233336261456188,5.0,-5.73883056640625
867,0.034942626953125,3.233336261456188,5.0,-5.74462890625
868,0.035247802734375,3.233336261456188,5.0,-5.75103759765625
869,0.034942626953125,3.233336261456188,5.0,-5.758056640625
870,0.03570556640625,3.233336261456188,5.0,-5.76385498046875
871,0.03662109375,3.233336261456188,5.0,-5.770263671875
872,0.037994384765625,3.233336261456188,5.0,-5.77545166015625
873,0.03936767578125,3.236388019268688,5.0,-5.78277587890625
874,0.04058837890625,3.236388019268688,5.0,-5.7879638671875
875,0.04241943359375,3.236388019268688,5.0,-5.79498291015625
876,0.043792724609375,3.236388019268688,5.0,-5.802001953125
877,0.045166015625,3.236388019268688,5.0,-5.8087158203125
878,0.04638671875,3.236388019268688,5.0,-5.81298828125
879,0.047454833984375,3.236388019268688,5.0,-5.82000732421875
880,0.04791259765625,3.236388019268688,5.0,-5.82763671875
881,0.048065185546875,3.221129230206188,5.0,-5.83221435546875
882,0.04791259765625,3.221129230206188,5.0,-5.83740234375
883,0.048370361328125,3.221129230206188,5.0,-5.84442138671875
884,0.048065185546875,3.221129230206188,5.0,-5.85174560546875
885,0.047454833984375,3.221129230206188,5.0,-5.8575439453125
886,0.04608154296875,3.221129230206188,5.0,-5.863037109375
887,0.0457763671875,3.221129230206188,5.0,-5.86944580078125
888,0.0445556640625,3.221129230206188,5.0,-5.87615966796875
889,0.043792724609375,3.224180988018688,5.0,-5.8807373046875
890,0.042724609375,3.224180988018688,5.0,-5.8880615234375
891,0.04241943359375,3.224180988018688,5.0,-5.8935546875
892,0.0421142578125,3.224180988018688,5.0,-5.90057373046875
893,0.041046142578125,3.224180988018688,5.0,-5.90606689453125
894,0.040435791015625,3.224180988018688,5.0,-5.9130859375
895,0.040435791015625,3.224180988018688,5.0,-5.91766357421875
896,0.0396728515625,3.224180988018688,5.0,-5.92498779296875
897,0.038909912109375,3.222655109112438,5.0,-5.93017578125
898,0.037994384765625,3.222655109112438,5.0,-5.936279296875
899,0.037384033203125,3.222655109112438,5.0,-5.9429931640625
900,0.03631591796875,3.222655109112438,5.0,-5.9503173828125
901,0.034942626953125,3.222655109112438,5.0,-5.95550537109375
902,0.034027099609375,3.222655109112438,5.0,-5.9600830078125
903,0.03265380859375,3.222655109112438,5.0,-5.966796875
904,0.032501220703125,3.222655109112438,5.0,-5.9722900390625
905,0.033721923828125,3.222655109112438,5.0,-5.97991943359375
906,0.03509521484375,3.222655109112438,5.0,-5.985107421875
907,0.03570556640625,3.222655109112438,5.0,-5.98968505859375
908,0.037078857421875,3.222655109112438,5.0,-5.99700927734375
909,0.03753662109375,3.222655109112438,5.0,-6.00372314453125
910,0.0372314453125,3.222655109112438,5.0,-6.009521484375
911,0.03662109375,3.222655109112438,5.0,-6.0137939453125
912,0.035858154296875,3.222655109112438,5.0,-6.02142333984375
913,0.03509521484375,3.221129230206188,5.0,-6.02630615234375
914,0.034027099609375,3.221129230206188,5.0,-6.0333251953125
915,0.033111572265625,3.221129230206188,5.0,-6.0394287109375
916,0.032501220703125,3.221129230206188,5.0,-6.043701171875
917,0.031585693359375,3.221129230206188,5.0,-6.0504150390625
918,0.030670166015625,3.221129230206188,5.0,-6.0552978515625
919,0.02899169921875,3.221129230206188,5.0,-6.06048583984375
920,0.027923583984375,3.221129230206188,5.0,-6.068115234375
921,0.02716064453125,3.221129230206188,5.0,-6.07421875
922,0.026092529296875,3.221129230206188,5.0,-6.0772705078125
923,0.026092529296875,3.221129230206188,5.0,-6.085205078125
924,0.025177001953125,3.221129230206188,5.0,-6.09039306640625
925,0.024261474609375,3.221129230206188,5.0,-6.097412109375
926,0.023040771484375,3.221129230206188,5.0,-6.10260009765625
927,0.022735595703125,3.221129230206188,5.0,-6.1077880859375
928,0.02166748046875,3.221129230206188,5.0,-6.11175537109375
929,0.0213623046875,3.224180988018688,5.0,-6.1199951171875
930,0.0201416015625,3.224180988018688,5.0,-6.124267578125
931,0.0189208984375,3.224180988018688,5.0,-6.1297607421875
932,0.01678466796875,3.224180988018688,5.0,-6.13677978515625
933,0.013580322265625,3.224180988018688,5.0,-6.14227294921875
934,0.010986328125,3.224180988018688,5.0,-6.146240234375
935,0.007476806640625,3.224180988018688,5.0,-6.15142822265625
936,0.00457763671875,3.224180988018688,5.0,-6.15814208984375
937,0.00213623046875,3.222655109112438,5.0,-6.163330078125
938,-0.000457763671875,3.222655109112438,5.0,-6.1688232421875
939,-0.001678466796875,3.222655109112438,5.0,-6.1749267578125
940,-0.003509521484375,3.222655109112438,5.0,-6.18072509765625
941,-0.0042724609375,3.222655109112438,5.0,-6.18621826171875
942,-0.005645751953125,3.222655109112438,5.0,-6.19110107421875
943,-0.006561279296875,3.222655109112438,5.0,-6.19720458984375
944,-0.007781982421875,3.222655109112438,5.0,-6.2030029296875
945,-0.008697509765625,3.224180988018688,5.0,-6.207275390625
946,-0.010833740234375,3.224180988018688,5.0,-6.21337890625
947,-0.012664794921875,3.224180988018688,5.0,-6.219482421875
948,-0.015411376953125,3.224180988018688,5.0,-6.22528076171875
949,-0.017242431640625,3.224180988018688,5.0,-6.23046875
950,-0.018463134765625,3.224180988018688,5.0,-6.2353515625
951,-0.021209716796875,3.224180988018688,5.0,-6.24176025390625
952,-0.0238037109375,3.224180988018688,5.0,-6.24664306640625
953,-0.025177001953125,3.216551593487438,5.0,-6.253662109375
954,-0.026397705078125,3.216551593487438,5.0,-6.25823974609375
955,-0.0274658203125,3.216551593487438,5.0,-6.2628173828125
956,-0.029296875,3.216551593487438,5.0,-6.268310546875
957,-0.029754638671875,3.216551593487438,5.0,-6.2738037109375
958,-0.03143310546875,3.216551593487438,5.0,-6.27777099609375
959,-0.032806396484375,3.216551593487438,5.0,-6.285400390625
960,-0.032958984375,3.216551593487438,5.0,-6.29150390625
961,-0.03448486328125,3.221129230206188,5.0,-6.29638671875
962,-0.034637451171875,3.221129230206188,5.0,-6.3018798828125
963,-0.035552978515625,3.221129230206188,5.0,-6.30615234375
964,-0.03570556640625,3.221129230206188,5.0,-6.3116455078125
965,-0.03692626953125,3.221129230206188,5.0,-6.317138671875
966,-0.037689208984375,3.221129230206188,5.0,-6.322021484375
967,-0.037994384765625,3.221129230206188,5.0,-6.3262939453125
968,-0.03936767578125,3.221129230206188,5.0,-6.331787109375
969,-0.03936767578125,3.222655109112438,5.0,-6.3372802734375
970,-0.0396728515625,3.222655109112438,5.0,-6.3409423828125
971,-0.038299560546875,3.222655109112438,5.0,-6.34765625
972,-0.03753662109375,3.222655109112438,5.0,-6.35345458984375
973,-0.03692626953125,3.222655109112438,5.0,-6.3568115234375
974,-0.0360107421875,3.222655109112438,5.0,-6.36260986328125
975,-0.035247802734375,3.222655109112438,5.0,-6.36688232421875
976,-0.036468505859375,3.222655109112438,5.0,-6.3714599609375
977,-0.035858154296875,3.222655109112438,5.0,-6.3775634765625
978,-0.03570556640625,3.222655109112438,5.0,-6.3818359375
979,-0.035858154296875,3.222655109112438,5.0,-6.38702392578125
980,-0.0347900390625,3.222655109112438,5.0,-6.3922119140625
981,-0.0335693359375,3.222655109112438,5.0,-6.39678955078125
982,-0.033721923828125,3.222655109112438,5.0,-6.4019775390625
983,-0.033416748046875,3.222655109112438,5.0,-6.40594482421875
984,-0.033111572265625,3.222655109112438,5.0,-6.41082763671875
985,-0.033416748046875,3.221129230206188,5.0,-6.41632080078125
986,-0.033111572265625,3.221129230206188,5.0,-6.41876220703125
987,-0.0341796875,3.221129230206188,5.0,-6.4239501953125
988,-0.034332275390625,3.221129230206188,5.0,-6.4288330078125
989,-0.035247802734375,3.221129230206188,5.0,-6.43524169921875
990,-0.03570556640625,3.221129230206188,5.0,-6.43890380859375
991,-0.035400390625,3.221129230206188,5.0,-6.44378662109375
992,-0.03570556640625,3.221129230206188,5.0,-6.448974609375
993,-0.03509521484375,3.224180988018688,5.0,-6.4532470703125
994,-0.034332275390625,3.224180988018688,5.0,-6.45904541015625
995,-0.032958984375,3.224180988018688,5.0,-6.46331787109375
996,-0.031585693359375,3.224180988018688,5.0,-6.46484375
997,-0.029144287109375,3.224180988018688,5.0,-6.47003173828125
998,-0.02777099609375,3.224180988018688,5.0,-6.4752197265625
999,-0.02532958984375,3.224180988018688,5.0,-6.47918701171875
1000,-0.02288818359375,3.224180988018688,5.0,-6.484375
1001,-0.020599365234375,3.221129230206188,5.0,-6.48834228515625
1002,-0.019073486328125,3.221129230206188,5.0,-6.492919921875
1003,-0.01861572265625,3.221129230206188,5.0,-6.49627685546875
1004,-0.0177001953125,3.221129230206188,5.0,-6.50115966796875
1005,-0.016937255859375,3.221129230206188,5.0,-6.50604248046875
1006,-0.016937255859375,3.221129230206188,5.0,-6.5106201171875
1007,-0.016937255859375,3.221129230206188,5.0,-6.51519775390625
1008,-0.016937255859375,3.221129230206188,5.0,-6.51763916015625
1009,-0.01708984375,3.221129230206188,5.0,-6.52252197265625
1010,-0.015716552734375,3.221129230206188,5.0,-6.52618408203125
1011,-0.015716552734375,3.221129230206188,5.0,-6.531982421875
1012,-0.0140380859375,3.221129230206188,5.0,-6.53717041015625
1013,-0.0128173828125,3.221129230206188,5.0,-6.5399169921875
1014,-0.01068115234375,3.221129230206188,5.0,-6.544189453125
1015,-0.008544921875,3.221129230206188,5.0,-6.54937744140625
1016,-0.007171630859375,3.221129230206188,5.0,-6.551513671875
1017,-0.005340576171875,3.224180988018688,5.0,-6.55609130859375
1018,-0.003814697265625,3.224180988018688,5.0,-6.56005859375
1019,-0.00274658203125,3.224180988018688,5.0,-6.56585693359375
1020,-0.00213623046875,3.224180988018688,5.0,-6.56890869140625
1021,-0.001983642578125,3.224180988018688,5.0,-6.57470703125
1022,-0.00213623046875,3.224180988018688,5.0,-6.5789794921875
1023,-0.001983642578125,3.224180988018688,5.0,-6.58111572265625
1024,-0.003204345703125,3.224180988018688,5.0,-6.585693359375
1025,-0.00457763671875,3.221129230206188,5.0,-6.59027099609375
1026,-0.006256103515625,3.221129230206188,5.0,-6.59271240234375
1027,-0.008697509765625,3.221129230206188,5.0,-6.5985107421875
1028,-0.011444091796875,3.221129230206188,5.0,-6.60369873046875
1029,-0.01251220703125,3.221129230206188,5.0,-6.60614013671875
1030,-0.0146484375,3.221129230206188,5.0,-6.6107177734375
1031,-0.015716552734375,3.221129230206188,5.0,-6.61529541015625
1032,-0.016937255859375,3.221129230206188,5.0,-6.61895751953125
1033,-0.017852783203125,3.219603351299938,5.0,-6.62384033203125
1034,-0.018310546875,3.219603351299938,5.0,-6.6253662109375
1035,-0.018310546875,3.219603351299938,5.0,-6.630859375
1036,-0.017547607421875,3.219603351299938,5.0,-6.6357421875
1037,-0.015411376953125,3.219603351299938,5.0,-6.63421630859375
1038,-0.0140380859375,3.219603351299938,5.0,-6.63726806640625
1039,-0.012054443359375,3.219603351299938,5.0,-6.63726806640625
1040,-0.011138916015625,3.219603351299938,5.0,-6.6357421875
1041,-0.009307861328125,3.222655109112438,5.0,-6.63360595703125
1042,-0.00823974609375,3.222655109112438,5.0,-6.63787841796875
1043,-0.008697509765625,3.222655109112438,5.0,-6.6400146484375
1044,-0.007476806640625,3.222655109112438,5.0,-6.6387939453125
1045,-0.00762939453125,3.222655109112438,5.0,-6.6357421875
1046,-0.00823974609375,3.222655109112438,5.0,-6.63787841796875
1047,-0.00946044921875,3.222655109112438,5.0,-6.6351318359375
1048,-0.01068115234375,3.222655109112438,5.0,-6.63665771484375
1049,-0.011749267578125,3.225706866924938,5.0,-6.6326904296875
1050,-0.01220703125,3.225706866924938,5.0,-6.6357421875
1051,-0.0115966796875,3.225706866924938,5.0,-6.6302490234375
1052,-0.010833740234375,3.225706866924938,5.0,-6.6302490234375
1053,-0.009613037109375,3.225706866924938,5.0,-6.629638671875
1054,-0.007781982421875,3.225706866924938,5.0,-6.629638671875
1055,-0.006561279296875,3.225706866924938,5.0,-6.62841796875
1056,-0.0054931640625,3.225706866924938,5.0,-6.62872314453125
1057,-0.005035400390625,3.221129230206188,5.0,-6.6290283203125
1058,-0.004730224609375,3.221129230206188,5.0,-6.62872314453125
1059,-0.004425048828125,3.221129230206188,5.0,-6.63421630859375
1060,-0.004730224609375,3.221129230206188,5.0,-6.63299560546875
1061,-0.004730224609375,3.221129230206188,5.0,-6.6351318359375
1062,-0.00579833984375,3.221129230206188,5.0,-6.63787841796875
1063,-0.006103515625,3.221129230206188,5.0,-6.63482666015625
1064,-0.006866455078125,3.221129230206188,5.0,-6.63543701171875
1065,-0.00885009765625,3.222655109112438,5.0,-6.6326904296875
1066,-0.011444091796875,3.222655109112438,5.0,-6.63787841796875
1067,-0.013885498046875,3.222655109112438,5.0,-6.63818359375
1068,-0.016326904296875,3.222655109112438,5.0,-6.63909912109375
1069,-0.01678466796875,3.222655109112438,5.0,-6.6351318359375
1070,-0.016937255859375,3.222655109112438,5.0,-6.63726806640625
1071,-0.01708984375,3.222655109112438,5.0,-6.636962890625
1072,-0.01617431640625,3.222655109112438,5.0,-6.636962890625
1073,-0.014495849609375,3.224180988018688,5.0,-6.63360595703125
1074,-0.0140380859375,3.224180988018688,5.0,-6.634521484375
1075,-0.012969970703125,3.224180988018688,5.0,-6.63055419921875
1076,-0.012054443359375,3.224180988018688,5.0,-6.629638671875
1077,-0.01220703125,3.224180988018688,5.0,-6.629638671875
1078,-0.013275146484375,3.224180988018688,5.0,-6.6302490234375
1079,-0.014190673828125,3.224180988018688,5.0,-6.629638671875
1080,-0.01495361328125,3.224180988018688,5.0,-6.62933349609375
1081,-0.016937255859375,3.222655109112438,5.0,-6.6302490234375
1082,-0.019073486328125,3.222655109112438,5.0,-6.6314697265625
1083,-0.019989013671875,3.222655109112438,5.0,-6.63543701171875
1084,-0.0225830078125,3.222655109112438,5.0,-6.63787841796875
1085,-0.023345947265625,3.222655109112438,5.0,-6.6363525390625
1086,-0.02349853515625,3.222655109112438,5.0,-6.63787841796875
1087,-0.024261474609375,3.222655109112438,5.0,-6.63787841796875
1088,-0.025634765625,3.222655109112438,5.0,-6.636962890625
1089,-0.025787353515625,3.224180988018688,5.0,-6.6375732421875
1090,-0.025634765625,3.224180988018688,5.0,-6.6400146484375
1091,-0.025787353515625,3.224180988018688,5.0,-6.6357421875
1092,-0.025634765625,3.224180988018688,5.0,-6.6326904296875
1093,-0.025177001953125,3.224180988018688,5.0,-6.63238525390625
1094,-0.024871826171875,3.224180988018688,5.0,-6.63299560546875
1095,-0.024566650390625,3.224180988018688,5.0,-6.63177490234375
1096,-0.023193359375,3.224180988018688,5.0,-6.63116455078125
1097,-0.02227783203125,3.224180988018688,5.0,-6.6314697265625
1098,-0.020294189453125,3.224180988018688,5.0,-6.63177490234375
1099,-0.018157958984375,3.224180988018688,5.0,-6.6357421875
1100,-0.01678466796875,3.224180988018688,5.0,-6.6357421875
1101,-0.015106201171875,3.224180988018688,5.0,-6.6339111328125
1102,-0.013275146484375,3.224180988018688,5.0,-6.6357421875
1103,-0.01190185546875,3.224180988018688,5.0,-6.634521484375
1104,-0.01007080078125,3.224180988018688,5.0,-6.63726806640625
1105,-0.009002685546875,3.222655109112438,5.0,-6.63238525390625
1106,-0.007476806640625,3.222655109112438,5.0,-6.63665771484375
1107,-0.005645751953125,3.222655109112438,5.0,-6.63421630859375
1108,-0.003814697265625,3.222655109112438,5.0,-6.63543701171875
1109,-0.002899169921875,3.222655109112438,5.0,-6.6326904296875
1110,-0.00152587890625,3.222655109112438,5.0,-6.6357421875
1111,0.0,3.222655109112438,5.0,-6.63421630859375
1112,0.001983642578125,3.222655109112438,5.0,-6.63726806640625
1113,0.004425048828125,3.225706866924938,5.0,-6.63482666015625
1114,0.005645751953125,3.225706866924938,5.0,-6.63726806640625
1115,0.00732421875,3.225706866924938,5.0,-6.62933349609375
1116,0.00885009765625,3.225706866924938,5.0,-6.6278076171875
1117,0.01007080078125,3.225706866924938,5.0,-6.62872314453125
1118,0.011444091796875,3.225706866924938,5.0,-6.62811279296875
1119,0.011749267578125,3.225706866924938,5.0,-6.62811279296875
1120,0.012969970703125,3.225706866924938,5.0,-6.6278076171875
1121,0.012664794921875,3.210448077862438,5.0,-6.62872314453125
1122,0.0128173828125,3.210448077862438,5.0,-6.627197265625
1123,0.012969970703125,3.210448077862438,5.0,-6.63543701171875
1124,0.01373291015625,3.210448077862438,5.0,-6.63421630859375
1125,0.014495849609375,3.210448077862438,5.0,-6.63421630859375
1126,0.01495361328125,3.210448077862438,5.0,-6.636962890625
1127,0.016021728515625,3.210448077862438,5.0,-6.636962890625
1128,0.017242431640625,3.210448077862438,5.0,-6.63482666015625
1129,0.019683837890625,3.207396320049938,5.0,-6.63299560546875
1130,0.020904541015625,3.207396320049938,5.0,-6.6363525390625
1131,0.023040771484375,3.207396320049938,5.0,-6.63177490234375
1132,0.02532958984375,3.207396320049938,5.0,-6.630859375
1133,0.027008056640625,3.207396320049938,5.0,-6.62994384765625
1134,0.028228759765625,3.207396320049938,5.0,-6.62872314453125
1135,0.0286865234375,3.207396320049938,5.0,-6.6278076171875
1136,0.02899169921875,3.207396320049938,5.0,-6.62811279296875
1137,0.0299072265625,3.210448077862438,5.0,-6.62750244140625
1138,0.028839111328125,3.210448077862438,5.0,-6.6259765625
1139,0.028533935546875,3.210448077862438,5.0,-6.629638671875
1140,0.028076171875,3.210448077862438,5.0,-6.62994384765625
1141,0.02655029296875,3.210448077862438,5.0,-6.63177490234375
1142,0.024871826171875,3.210448077862438,5.0,-6.6339111328125
1143,0.022125244140625,3.210448077862438,5.0,-6.63299560546875
1144,0.01953125,3.210448077862438,5.0,-6.63299560546875
1145,0.015716552734375,3.213499835674938,5.0,-6.62994384765625
1146,0.01220703125,3.213499835674938,5.0,-6.63360595703125
1147,0.008392333984375,3.213499835674938,5.0,-6.63665771484375
1148,0.0048828125,3.213499835674938,5.0,-6.63330078125
1149,0.00213623046875,3.213499835674938,5.0,-6.63421630859375
1150,-0.001220703125,3.213499835674938,5.0,-6.63543701171875
1151,-0.003814697265625,3.213499835674938,5.0,-6.6357421875
1152,-0.00579833984375,3.213499835674938,5.0,-6.6357421875
1153,-0.00762939453125,3.211973956768688,5.0,-6.63482666015625
1154,-0.009002685546875,3.211973956768688,5.0,-6.6326904296875
1155,-0.009613037109375,3.211973956768688,5.0,-6.634521484375
1156,-0.011138916015625,3.211973956768688,5.0,-6.63055419921875
1157,-0.01251220703125,3.211973956768688,5.0,-6.63055419921875
1158,-0.01373291015625,3.211973956768688,5.0,-6.629638671875
1159,-0.016326904296875,3.211973956768688,5.0,-6.630859375
1160,-0.020294189453125,3.211973956768688,5.0,-6.63116455078125
1161,-0.023651123046875,3.208922198956188,5.0,-6.63238525390625
1162,-0.028076171875,3.208922198956188,5.0,-6.63421630859375
1163,-0.031890869140625,3.208922198956188,5.0,-6.63482666015625
1164,-0.036773681640625,3.208922198956188,5.0,-6.6400146484375
1165,-0.040283203125,3.208922198956188,5.0,-6.640625
1166,-0.0439453125,3.208922198956188,5.0,-6.64459228515625
1167,-0.047454833984375,3.208922198956188,5.0,-6.64764404296875
1168,-0.05096435546875,3.208922198956188,5.0,-6.64886474609375
1169,-0.05340576171875,3.211973956768688,5.0,-6.64703369140625
1170,-0.055084228515625,3.211973956768688,5.0,-6.64581298828125
1171,-0.05645751953125,3.211973956768688,5.0,-6.6510009765625
1172,-0.0579833984375,3.211973956768688,5.0,-6.65130615234375
1173,-0.058135986328125,3.211973956768688,5.0,-6.65008544921875
1174,-0.059356689453125,3.211973956768688,5.0,-6.6497802734375
1175,-0.05950927734375,3.211973956768688,5.0,-6.6473388671875
1176,-0.060577392578125,3.211973956768688,5.0,-6.6510009765625
1177,-0.060882568359375,3.208922198956188,5.0,-6.64825439453125
1178,-0.060272216796875,3.208922198956188,5.0,-6.64794921875
1179,-0.060272216796875,3.208922198956188,5.0,-6.651611328125
1180,-0.05950927734375,3.208922198956188,5.0,-6.64520263671875
1181,-0.059661865234375,3.208922198956188,5.0,-6.64276123046875
1182,-0.059356689453125,3.208922198956188,5.0,-6.64276123046875
1183,-0.059814453125,3.208922198956188,5.0,-6.64306640625
1184,-0.060577392578125,3.208922198956188,5.0,-6.6436767578125
1185,-0.061187744140625,3.210448077862438,5.0,-6.64215087890625
1186,-0.06195068359375,3.210448077862438,5.0,-6.64398193359375
1187,-0.062103271484375,3.210448077862438,5.0,-6.64398193359375
1188,-0.063018798828125,3.210448077862438,5.0,-6.64642333984375
1189,-0.063323974609375,3.210448077862438,5.0,-6.6485595703125
1190,-0.063018798828125,3.210448077862438,5.0,-6.6497802734375
1191,-0.06195068359375,3.210448077862438,5.0,-6.649169921875
1192,-0.06103515625,3.210448077862438,5.0,-6.65191650390625
1193,-0.059814453125,3.211973956768688,5.0,-6.64886474609375
1194,-0.058746337890625,3.211973956768688,5.0,-6.64642333984375
1195,-0.056915283203125,3.211973956768688,5.0,-6.6510009765625
1196,-0.055084228515625,3.211973956768688,5.0,-6.64703369140625
1197,-0.053558349609375,3.211973956768688,5.0,-6.6510009765625
1198,-0.05157470703125,3.211973956768688,5.0,-6.65008544921875
1199,-0.048675537109375,3.211973956768688,5.0,-6.6461181640625
1200,-0.047607421875,3.211973956768688,5.0,-6.64794921875
1201,-0.045623779296875,3.208922198956188,5.0,-6.64520263671875
1202,-0.04364013671875,3.208922198956188,5.0,-6.64703369140625
1203,-0.043182373046875,3.208922198956188,5.0,-6.644287109375
1204,-0.04302978515625,3.208922198956188,5.0,-6.64581298828125
1205,-0.043182373046875,3.208922198956188,5.0,-6.63970947265625
1206,-0.043792724609375,3.208922198956188,5.0,-6.63787841796875
1207,-0.045166015625,3.208922198956188,5.0,-6.63909912109375
1208,-0.04638671875,3.208922198956188,5.0,-6.6400146484375
1209,-0.046844482421875,3.222655109112438,5.0,-6.64031982421875
1210,-0.04730224609375,3.222655109112438,5.0,-6.63909912109375
1211,-0.045928955078125,3.222655109112438,5.0,-6.63909912109375
1212,-0.044708251953125,3.222655109112438,5.0,-6.6387939453125
1213,-0.04302978515625,3.222655109112438,5.0,-6.64581298828125
1214,-0.042266845703125,3.222655109112438,5.0,-6.64520263671875
1215,-0.041351318359375,3.222655109112438,5.0,-6.6424560546875
1216,-0.040740966796875,3.222655109112438,5.0,-6.646728515625
1217,-0.0396728515625,3.222655109112438,5.0,-6.64520263671875
1218,-0.037841796875,3.222655109112438,5.0,-6.64398193359375
1219,-0.035552978515625,3.222655109112438,5.0,-6.641845703125
1220,-0.032196044921875,3.222655109112438,5.0,-6.64215087890625
1221,-0.027313232421875,3.222655109112438,5.0,-6.63909912109375
1222,-0.022430419921875,3.222655109112438,5.0,-6.636962890625
1223,-0.01678466796875,3.222655109112438,5.0,-6.63482666015625
1224,-0.010528564453125,3.222655109112438,5.0,-6.63330078125
1225,-0.004119873046875,3.218077472393688,5.0,-6.63238525390625
1226,0.002593994140625,3.218077472393688,5.0,-6.632080078125
1227,0.009307861328125,3.218077472393688,5.0,-6.63177490234375
1228,0.016937255859375,3.218077472393688,5.0,-6.62933349609375
1229,0.02349853515625,3.218077472393688,5.0,-6.63604736328125
1230,0.03082275390625,3.218077472393688,5.0,-6.6326904296875
1231,0.0396728515625,3.218077472393688,5.0,-6.63421630859375
1232,0.048828125,3.218077472393688,5.0,-6.63818359375
1233,0.059814453125,3.221129230206188,5.0,-6.6357421875
1234,0.0732421875,3.221129230206188,5.0,-6.63421630859375
1235,0.0860595703125,3.221129230206188,5.0,-6.63177490234375
1236,0.101165771484375,3.221129230206188,5.0,-6.6351318359375
1237,0.115814208984375,3.221129230206188,5.0,-6.634521484375
1238,0.130462646484375,3.221129230206188,5.0,-6.629638671875
1239,0.145721435546875,3.221129230206188,5.0,-6.6326904296875
1240,0.161590576171875,3.221129230206188,5.0,-6.63360595703125
1241,0.178070068359375,3.225706866924938,5.0,-6.63177490234375
1242,0.19439697265625,3.225706866924938,5.0,-6.632080078125
1243,0.211334228515625,3.225706866924938,5.0,-6.6290283203125
1244,0.22613525390625,3.225706866924938,5.0,-6.63421630859375
1245,0.24078369140625,3.225706866924938,5.0,-6.6229248046875
1246,0.25238037109375,3.225706866924938,5.0,-6.62200927734375
1247,0.260772705078125,3.225706866924938,5.0,-6.62200927734375
1248,0.267333984375,3.225706866924938,5.0,-6.6204833984375
1249,0.27008056640625,3.219603351299938,5.0,-6.62139892578125
1250,0.26824951171875,3.219603351299938,5.0,-6.6229248046875
1251,0.262298583984375,3.219603351299938,5.0,-6.62322998046875
1252,0.250244140625,3.219603351299938,5.0,-6.62322998046875
1253,0.233001708984375,3.219603351299938,5.0,-6.6290283203125
1254,0.20782470703125,3.219603351299938,5.0,-6.62933349609375
1255,0.1776123046875,3.219603351299938,5.0,-6.632080078125
1256,0.1434326171875,3.219603351299938,5.0,-6.63543701171875
1257,0.107574462890625,3.222655109112438,5.0,-6.6375732421875
1258,0.06988525390625,3.222655109112438,5.0,-6.63360595703125
1259,0.033721923828125,3.222655109112438,5.0,-6.63360595703125
1260,-0.000457763671875,3.222655109112438,5.0,-6.63909912109375
1261,-0.032196044921875,3.222655109112438,5.0,-6.64337158203125
1262,-0.0592041015625,3.222655109112438,5.0,-6.64825439453125
1263,-0.08148193359375,3.222655109112438,5.0,-6.6546630859375
1264,-0.099334716796875,3.222655109112438,5.0,-6.6595458984375
1265,-0.11260986328125,3.225706866924938,5.0,-6.66229248046875
1266,-0.121917724609375,3.225706866924938,5.0,-6.66473388671875
1267,-0.128631591796875,3.225706866924938,5.0,-6.6680908203125
1268,-0.133514404296875,3.225706866924938,5.0,-6.66900634765625
1269,-0.136566162109375,3.225706866924938,5.0,-6.66839599609375
1270,-0.137786865234375,3.225706866924938,5.0,-6.6741943359375
1271,-0.1373291015625,3.225706866924938,5.0,-6.67694091796875
1272,-0.1361083984375,3.225706866924938,5.0,-6.6741943359375
1273,-0.13336181640625,3.224180988018688,5.0,-6.67694091796875
1274,-0.13092041015625,3.224180988018688,5.0,-6.67266845703125
1275,-0.128936767578125,3.224180988018688,5.0,-6.6741943359375
1276,-0.127410888671875,3.224180988018688,5.0,-6.6705322265625
1277,-0.12542724609375,3.224180988018688,5.0,-6.676025390625
1278,-0.124053955078125,3.224180988018688,5.0,-6.6741943359375
1279,-0.123291015625,3.224180988018688,5.0,-6.67327880859375
1280,-0.122833251953125,3.224180988018688,5.0,-6.6717529296875
1281,-0.121612548828125,3.222655109112438,5.0,-6.6741943359375
1282,-0.121612548828125,3.222655109112438,5.0,-6.67205810546875
1283,-0.119476318359375,3.222655109112438,5.0,-6.67205810546875
1284,-0.118255615234375,3.222655109112438,5.0,-6.66839599609375
1285,-0.117645263671875,3.222655109112438,5.0,-6.671142578125
1286,-0.115814208984375,3.222655109112438,5.0,-6.66717529296875
1287,-0.11505126953125,3.222655109112438,5.0,-6.6668701171875
1288,-0.113677978515625,3.222655109112438,5.0,-6.66595458984375
1289,-0.112152099609375,3.219603351299938,5.0,-6.6656494140625
1290,-0.110321044921875,3.219603351299938,5.0,-6.66473388671875
1291,-0.109405517578125,3.219603351299938,5.0,-6.6619873046875
1292,-0.107879638671875,3.219603351299938,5.0,-6.6619873046875
1293,-0.106353759765625,3.219603351299938,5.0,-6.66168212890625
1294,-0.105133056640625,3.219603351299938,5.0,-6.666259765625
1295,-0.103912353515625,3.219603351299938,5.0,-6.66656494140625
1296,-0.10223388671875,3.219603351299938,5.0,-6.663818359375
1297,-0.10101318359375,3.225706866924938,5.0,-6.666259765625
1298,-0.099639892578125,3.225706866924938,5.0,-6.66351318359375
1299,-0.099334716796875,3.225706866924938,5.0,-6.666259765625
1300,-0.09857177734375,3.225706866924938,5.0,-6.66168212890625
1301,-0.097808837890625,3.225706866924938,5.0,-6.66656494140625
1302,-0.098114013671875,3.225706866924938,5.0,-6.66748046875
1303,-0.09735107421875,3.225706866924938,5.0,-6.66351318359375
1304,-0.09674072265625,3.225706866924938,5.0,-6.6650390625
1305,-0.095672607421875,3.224180988018688,5.0,-6.66656494140625
1306,-0.094451904296875,3.224180988018688,5.0,-6.6644287109375
1307,-0.09429931640625,3.224180988018688,5.0,-6.66656494140625
1308,-0.093231201171875,3.224180988018688,5.0,-6.663818359375
1309,-0.093231201171875,3.224180988018688,5.0,-6.66717529296875
1310,-0.091552734375,3.224180988018688,5.0,-6.6583251953125
1311,-0.09124755859375,3.224180988018688,5.0,-6.65679931640625
1312,-0.09002685546875,3.224180988018688,5.0,-6.656494140625
1313,-0.0885009765625,3.218077472393688,5.0,-6.65618896484375
1314,-0.087432861328125,3.218077472393688,5.0,-6.65618896484375
1315,-0.08636474609375,3.218077472393688,5.0,-6.6552734375
1316,-0.084991455078125,3.218077472393688,5.0,-6.6546630859375
1317,-0.08453369140625,3.218077472393688,5.0,-6.6546630859375
1318,-0.08331298828125,3.218077472393688,5.0,-6.661376953125
1319,-0.082550048828125,3.218077472393688,5.0,-6.661376953125
1320,-0.081329345703125,3.218077472393688,5.0,-6.65863037109375
1321,-0.08087158203125,3.221129230206188,5.0,-6.6619873046875
1322,-0.079498291015625,3.221129230206188,5.0,-6.66107177734375
1323,-0.07904052734375,3.221129230206188,5.0,-6.66015625
1324,-0.07843017578125,3.221129230206188,5.0,-6.656494140625
1325,-0.077972412109375,3.221129230206188,5.0,-6.661376953125
1326,-0.076751708984375,3.221129230206188,5.0,-6.65924072265625
1327,-0.076904296875,3.221129230206188,5.0,-6.6619873046875
1328,-0.076751708984375,3.221129230206188,5.0,-6.6571044921875
1329,-0.07568359375,3.224180988018688,5.0,-6.66107177734375
1330,-0.0750732421875,3.224180988018688,5.0,-6.6571044921875
1331,-0.073699951171875,3.224180988018688,5.0,-6.65618896484375
1332,-0.071258544921875,3.224180988018688,5.0,-6.65374755859375
1333,-0.06988525390625,3.224180988018688,5.0,-6.65496826171875
1334,-0.068511962890625,3.224180988018688,5.0,-6.65191650390625
1335,-0.067291259765625,3.224180988018688,5.0,-6.64947509765625
1336,-0.06591796875,3.224180988018688,5.0,-6.65008544921875
1337,-0.064239501953125,3.224180988018688,5.0,-6.64947509765625
1338,-0.0628662109375,3.224180988018688,5.0,-6.649169921875
1339,-0.06072998046875,3.224180988018688,5.0,-6.64886474609375
1340,-0.059356689453125,3.224180988018688,5.0,-6.6473388671875
1341,-0.058441162109375,3.224180988018688,5.0,-6.6473388671875
1342,-0.05706787109375,3.224180988018688,5.0,-6.6534423828125
1343,-0.05584716796875,3.224180988018688,5.0,-6.6510009765625
1344,-0.054473876953125,3.224180988018688,5.0,-6.65283203125
1345,-0.053253173828125,3.219603351299938,5.0,-6.654052734375
1346,-0.0531005859375,3.219603351299938,5.0,-6.6546630859375
1347,-0.052337646484375,3.219603351299938,5.0,-6.65191650390625
1348,-0.0518798828125,3.219603351299938,5.0,-6.6497802734375
1349,-0.051727294921875,3.219603351299938,5.0,-6.654052734375
1350,-0.0506591796875,3.219603351299938,5.0,-6.649169921875
1351,-0.0506591796875,3.219603351299938,5.0,-6.64825439453125
1352,-0.0494384765625,3.219603351299938,5.0,-6.6485595703125
1353,-0.048370361328125,3.225706866924938,5.0,-6.64703369140625
1354,-0.0469970703125,3.225706866924938,5.0,-6.6455078125
1355,-0.0457763671875,3.225706866924938,5.0,-6.64337158203125
1356,-0.044403076171875,3.225706866924938,5.0,-6.64337158203125
1357,-0.04364013671875,3.225706866924938,5.0,-6.6436767578125
1358,-0.042266845703125,3.225706866924938,5.0,-6.64337158203125
1359,-0.041656494140625,3.225706866924938,5.0,-6.6497802734375
1360,-0.040283203125,3.225706866924938,5.0,-6.64825439453125
1361,-0.038604736328125,3.219603351299938,5.0,-6.64764404296875
1362,-0.03753662109375,3.219603351299938,5.0,-6.64886474609375
1363,-0.03631591796875,3.219603351299938,5.0,-6.6461181640625
1364,-0.03570556640625,3.219603351299938,5.0,-6.64703369140625
1365,-0.0347900390625,3.219603351299938,5.0,-6.64459228515625
1366,-0.034332275390625,3.219603351299938,5.0,-6.6497802734375
1367,-0.035552978515625,3.219603351299938,5.0,-6.64947509765625
1368,-0.035858154296875,3.219603351299938,5.0,-6.64794921875
1369,-0.03692626953125,3.227232745831188,5.0,-6.64703369140625
1370,-0.0384521484375,3.227232745831188,5.0,-6.6485595703125
1371,-0.037994384765625,3.227232745831188,5.0,-6.6497802734375
1372,-0.0390625,3.227232745831188,5.0,-6.65008544921875
1373,-0.039520263671875,3.227232745831188,5.0,-6.64886474609375
1374,-0.039520263671875,3.227232745831188,5.0,-6.6510009765625
1375,-0.038604736328125,3.227232745831188,5.0,-6.64398193359375
1376,-0.03753662109375,3.227232745831188,5.0,-6.64306640625
1377,-0.036163330078125,3.221129230206188,5.0,-6.6412353515625
1378,-0.03509521484375,3.221129230206188,5.0,-6.6412353515625
1379,-0.033416748046875,3.221129230206188,5.0,-6.64093017578125
1380,-0.03204345703125,3.221129230206188,5.0,-6.63970947265625
1381,-0.030517578125,3.221129230206188,5.0,-6.639404296875
1382,-0.030670166015625,3.221129230206188,5.0,-6.63970947265625
1383,-0.030059814453125,3.221129230206188,5.0,-6.64031982421875
1384,-0.029449462890625,3.221129230206188,5.0,-6.64398193359375
1385,-0.02838134765625,3.225706866924938,5.0,-6.64398193359375
1386,-0.027008056640625,3.225706866924938,5.0,-6.6424560546875
1387,-0.026397705078125,3.225706866924938,5.0,-6.64581298828125
1388,-0.02685546875,3.225706866924938,5.0,-6.64306640625
1389,-0.02685546875,3.225706866924938,5.0,-6.64459228515625
1390,-0.027618408203125,3.225706866924938,5.0,-6.641845703125
1391,-0.02685546875,3.225706866924938,5.0,-6.64703369140625
1392,-0.02593994140625,3.225706866924938,5.0,-6.644287109375
1393,-0.02532958984375,3.211973956768688,5.0,-6.646728515625
1394,-0.02471923828125,3.211973956768688,5.0,-6.64306640625
1395,-0.023040771484375,3.211973956768688,5.0,-6.644287109375
1396,-0.02197265625,3.211973956768688,5.0,-6.6436767578125
1397,-0.020599365234375,3.211973956768688,5.0,-6.64337158203125
1398,-0.01800537109375,3.211973956768688,5.0,-6.639404296875
1399,-0.015716552734375,3.211973956768688,5.0,-6.64093017578125
1400,-0.0128173828125,3.211973956768688,5.0,-6.63482666015625
1401,-0.010528564453125,3.210448077862438,5.0,-6.63360595703125
1402,-0.0091552734375,3.210448077862438,5.0,-6.63360595703125
1403,-0.008544921875,3.210448077862438,5.0,-6.63330078125
1404,-0.007476806640625,3.210448077862438,5.0,-6.63360595703125
1405,-0.005950927734375,3.210448077862438,5.0,-6.6314697265625
1406,-0.0054931640625,3.210448077862438,5.0,-6.6326904296875
1407,-0.00457763671875,3.210448077862438,5.0,-6.6326904296875
1408,-0.004730224609375,3.210448077862438,5.0,-6.63726806640625
1409,-0.005035400390625,3.205870441143688,5.0,-6.63787841796875
1410,-0.004730224609375,3.205870441143688,5.0,-6.6387939453125
1411,-0.004425048828125,3.205870441143688,5.0,-6.64276123046875
1412,-0.003204345703125,3.205870441143688,5.0,-6.64154052734375
1413,-0.001678466796875,3.205870441143688,5.0,-6.6400146484375
1414,0.0,3.205870441143688,5.0,-6.63848876953125
1415,0.001983642578125,3.205870441143688,5.0,-6.64215087890625
1416,0.004425048828125,3.205870441143688,5.0,-6.64276123046875
1417,0.007171630859375,3.207396320049938,5.0,-6.6387939453125
1418,0.008544921875,3.207396320049938,5.0,-6.639404296875
1419,0.010833740234375,3.207396320049938,5.0,-6.64215087890625
1420,0.012054443359375,3.207396320049938,5.0,-6.64154052734375
1421,0.012664794921875,3.207396320049938,5.0,-6.639404296875
1422,0.01312255859375,3.207396320049938,5.0,-6.63970947265625
1423,0.0128173828125,3.207396320049938,5.0,-6.6436767578125
1424,0.013885498046875,3.207396320049938,5.0,-6.6351318359375
1425,0.014190673828125,3.210448077862438,5.0,-6.63360595703125
1426,0.014801025390625,3.210448077862438,5.0,-6.63299560546875
1427,0.016632080078125,3.210448077862438,5.0,-6.63360595703125
1428,0.018310546875,3.210448077862438,5.0,-6.63360595703125
1429,0.01953125,3.210448077862438,5.0,-6.63330078125
1430,0.020904541015625,3.210448077862438,5.0,-6.63238525390625
1431,0.022125244140625,3.210448077862438,5.0,-6.63238525390625
1432,0.0238037109375,3.210448077862438,5.0,-6.63665771484375
1433,0.025482177734375,3.208922198956188,5.0,-6.636962890625
1434,0.026702880859375,3.208922198956188,5.0,-6.639404296875
1435,0.02838134765625,3.208922198956188,5.0,-6.64093017578125
1436,0.02960205078125,3.208922198956188,5.0,-6.64154052734375
1437,0.03082275390625,3.208922198956188,5.0,-6.636962890625
1438,0.03204345703125,3.208922198956188,5.0,-6.63543701171875
1439,0.032958984375,3.208922198956188,5.0,-6.64093017578125
1440,0.0341796875,3.208922198956188,5.0,-6.6363525390625
1441,0.03509521484375,3.211973956768688,5.0,-6.6357421875
1442,0.035400390625,3.211973956768688,5.0,-6.6357421875
1443,0.03509521484375,3.211973956768688,5.0,-6.63604736328125
1444,0.033721923828125,3.211973956768688,5.0,-6.63604736328125
1445,0.03326416015625,3.211973956768688,5.0,-6.634521484375
1446,0.032501220703125,3.211973956768688,5.0,-6.6351318359375
1447,0.031280517578125,3.211973956768688,5.0,-6.6363525390625
1448,0.030059814453125,3.211973956768688,5.0,-6.63360595703125
1449,0.029296875,3.211973956768688,5.0,-6.63970947265625
1450,0.02838134765625,3.211973956768688,5.0,-6.63970947265625
1451,0.027618408203125,3.211973956768688,5.0,-6.6375732421875
1452,0.027618408203125,3.211973956768688,5.0,-6.6400146484375
1453,0.028839111328125,3.211973956768688,5.0,-6.63848876953125
1454,0.028533935546875,3.211973956768688,5.0,-6.640625
1455,0.028839111328125,3.211973956768688,5.0,-6.6363525390625
1456,0.0286865234375,3.211973956768688,5.0,-6.6412353515625
1457,0.02777099609375,3.215025714581188,5.0,-6.63909912109375
1458,0.02685546875,3.215025714581188,5.0,-6.6387939453125
1459,0.02655029296875,3.215025714581188,5.0,-6.63909912109375
1460,0.02532958984375,3.215025714581188,5.0,-6.64093017578125
1461,0.025177001953125,3.215025714581188,5.0,-6.6400146484375
1462,0.023651123046875,3.215025714581188,5.0,-6.64276123046875
1463,0.02197265625,3.215025714581188,5.0,-6.63818359375
1464,0.020904541015625,3.215025714581188,5.0,-6.6412353515625
1465,0.020599365234375,3.207396320049938,5.0,-6.6339111328125
1466,0.019073486328125,3.207396320049938,5.0,-6.6339111328125
1467,0.018768310546875,3.207396320049938,5.0,-6.63360595703125
1468,0.017852783203125,3.207396320049938,5.0,-6.63299560546875
1469,0.017547607421875,3.207396320049938,5.0,-6.63360595703125
1470,0.016632080078125,3.207396320049938,5.0,-6.63299560546875
1471,0.016021728515625,3.207396320049938,5.0,-6.63360595703125
1472,0.01434326171875,3.207396320049938,5.0,-6.63360595703125
1473,0.013427734375,3.210448077862438,5.0,-6.640625
1474,0.011444091796875,3.210448077862438,5.0,-6.6387939453125
1475,0.009918212890625,3.210448077862438,5.0,-6.64031982421875
1476,0.008087158203125,3.210448077862438,5.0,-6.6424560546875
1477,0.0067138671875,3.210448077862438,5.0,-6.6400146484375
1478,0.004425048828125,3.210448077862438,5.0,-6.641845703125
1479,0.002899169921875,3.210448077862438,5.0,-6.63726806640625
1480,0.0018310546875,3.210448077862438,5.0,-6.641845703125
1481,0.000457763671875,3.213499835674938,5.0,-6.63818359375
1482,-0.00152587890625,3.213499835674938,5.0,-6.63726806640625
1483,-0.00396728515625,3.213499835674938,5.0,-6.6375732421875
1484,-0.0054931640625,3.213499835674938,5.0,-6.63787841796875
1485,-0.0079345703125,3.213499835674938,5.0,-6.636962890625
1486,-0.010223388671875,3.213499835674938,5.0,-6.63787841796875
1487,-0.012664794921875,3.213499835674938,5.0,-6.63848876953125
1488,-0.015106201171875,3.213499835674938,5.0,-6.639404296875
1489,-0.018157958984375,3.208922198956188,5.0,-6.63909912109375
1490,-0.02105712890625,3.208922198956188,5.0,-6.6424560546875
1491,-0.023651123046875,3.208922198956188,5.0,-6.644287109375
1492,-0.0262451171875,3.208922198956188,5.0,-6.64215087890625
1493,-0.027923583984375,3.208922198956188,5.0,-6.6461181640625
1494,-0.030059814453125,3.208922198956188,5.0,-6.64520263671875
1495,-0.032501220703125,3.208922198956188,5.0,-6.6455078125
1496,-0.035247802734375,3.208922198956188,5.0,-6.644287109375
1497,-0.03662109375,3.208922198956188,5.0,-6.65008544921875
1498,-0.037841796875,3.208922198956188,5.0,-6.64764404296875
1499,-0.038604736328125,3.208922198956188,5.0,-6.64886474609375
1500,-0.041046142578125,3.208922198956188,5.0,-6.64581298828125
1501,-0.04364013671875,3.208922198956188,5.0,-6.64947509765625
1502,-0.046234130859375,3.208922198956188,5.0,-6.65069580078125
1503,-0.048980712890625,3.208922198956188,5.0,-6.65374755859375
1504,-0.050811767578125,3.208922198956188,5.0,-6.650390625
1505,-0.05462646484375,3.210448077862438,5.0,-6.65191650390625
1506,-0.057220458984375,3.210448077862438,5.0,-6.64764404296875
1507,-0.060882568359375,3.210448077862438,5.0,-6.64947509765625
1508,-0.064697265625,3.210448077862438,5.0,-6.649169921875
1509,-0.06744384765625,3.210448077862438,5.0,-6.65069580078125
1510,-0.069732666015625,3.210448077862438,5.0,-6.6497802734375
1511,-0.071563720703125,3.210448077862438,5.0,-6.651611328125
1512,-0.07232666015625,3.210448077862438,5.0,-6.65191650390625
1513,-0.073394775390625,3.207396320049938,5.0,-6.6522216796875
1514,-0.074310302734375,3.207396320049938,5.0,-6.65771484375
1515,-0.07476806640625,3.207396320049938,5.0,-6.658935546875
1516,-0.07598876953125,3.207396320049938,5.0,-6.6571044921875
1517,-0.074920654296875,3.207396320049938,5.0,-6.66046142578125
1518,-0.074310302734375,3.207396320049938,5.0,-6.65802001953125
1519,-0.073089599609375,3.207396320049938,5.0,-6.6595458984375
1520,-0.073089599609375,3.207396320049938,5.0,-6.65557861328125
1521,-0.072479248046875,3.208922198956188,5.0,-6.65863037109375
1522,-0.074005126953125,3.208922198956188,5.0,-6.66107177734375
1523,-0.074462890625,3.208922198956188,5.0,-6.661376953125
1524,-0.0750732421875,3.208922198956188,5.0,-6.66107177734375
1525,-0.075225830078125,3.208922198956188,5.0,-6.66259765625
1526,-0.076141357421875,3.208922198956188,5.0,-6.65985107421875
1527,-0.07659912109375,3.208922198956188,5.0,-6.66046142578125
1528,-0.077056884765625,3.208922198956188,5.0,-6.65924072265625
1529,-0.076751708984375,3.210448077862438,5.0,-6.66259765625
1530,-0.07781982421875,3.210448077862438,5.0,-6.65435791015625
1531,-0.077972412109375,3.210448077862438,5.0,-6.6534423828125
1532,-0.077972412109375,3.210448077862438,5.0,-6.65283203125
1533,-0.076751708984375,3.210448077862438,5.0,-6.6522216796875
1534,-0.076904296875,3.210448077862438,5.0,-6.65191650390625
1535,-0.076751708984375,3.210448077862438,5.0,-6.65130615234375
1536,-0.075531005859375,3.210448077862438,5.0,-6.651611328125
1537,-0.07568359375,3.213499835674938,5.0,-6.65191650390625
1538,-0.074920654296875,3.213499835674938,5.0,-6.65863037109375
1539,-0.07415771484375,3.213499835674938,5.0,-6.65802001953125
1540,-0.073699951171875,3.213499835674938,5.0,-6.65679931640625
1541,-0.07232666015625,3.213499835674938,5.0,-6.66015625
1542,-0.071258544921875,3.213499835674938,5.0,-6.65924072265625
1543,-0.070953369140625,3.213499835674938,5.0,-6.658935546875
1544,-0.069427490234375,3.213499835674938,5.0,-6.656494140625
1545,-0.0689697265625,3.210448077862438,5.0,-6.66046142578125
1546,-0.0689697265625,3.210448077862438,5.0,-6.66229248046875
1547,-0.070037841796875,3.210448077862438,5.0,-6.66046142578125
1548,-0.070648193359375,3.210448077862438,5.0,-6.65924072265625
1549,-0.070648193359375,3.210448077862438,5.0,-6.661376953125
1550,-0.07080078125,3.210448077862438,5.0,-6.65740966796875
1551,-0.07049560546875,3.210448077862438,5.0,-6.65863037109375
1552,-0.06927490234375,3.210448077862438,5.0,-6.65496826171875
1553,-0.068206787109375,3.211973956768688,5.0,-6.6595458984375
1554,-0.066680908203125,3.211973956768688,5.0,-6.6522216796875
1555,-0.063018798828125,3.211973956768688,5.0,-6.65008544921875
1556,-0.060272216796875,3.211973956768688,5.0,-6.6485595703125
1557,-0.0567626953125,3.211973956768688,5.0,-6.64794921875
1558,-0.053558349609375,3.211973956768688,5.0,-6.64703369140625
1559,-0.051727294921875,3.211973956768688,5.0,-6.64642333984375
1560,-0.050201416015625,3.211973956768688,5.0,-6.6448974609375
1561,-0.04852294921875,3.210448077862438,5.0,-6.64520263671875
1562,-0.047760009765625,3.210448077862438,5.0,-6.65191650390625
1563,-0.048065185546875,3.210448077862438,5.0,-6.64825439453125
1564,-0.048065185546875,3.210448077862438,5.0,-6.651611328125
1565,-0.048370361328125,3.210448077862438,5.0,-6.65374755859375
1566,-0.048370361328125,3.210448077862438,5.0,-6.65283203125
1567,-0.048065185546875,3.210448077862438,5.0,-6.65283203125
1568,-0.0482177734375,3.210448077862438,5.0,-6.650390625
1569,-0.0482177734375,3.211973956768688,5.0,-6.65435791015625
1570,-0.04730224609375,3.211973956768688,5.0,-6.64764404296875
1571,-0.0469970703125,3.211973956768688,5.0,-6.64825439453125
1572,-0.046234130859375,3.211973956768688,5.0,-6.64794921875
1573,-0.045013427734375,3.211973956768688,5.0,-6.64764404296875
1574,-0.0439453125,3.211973956768688,5.0,-6.64459228515625
1575,-0.04150390625,3.211973956768688,5.0,-6.64276123046875
1576,-0.038909912109375,3.211973956768688,5.0,-6.64276123046875
1577,-0.03662109375,3.211973956768688,5.0,-6.6424560546875
1578,-0.03387451171875,3.211973956768688,5.0,-6.64794921875
1579,-0.03143310546875,3.211973956768688,5.0,-6.6455078125
1580,-0.0286865234375,3.211973956768688,5.0,-6.64581298828125
1581,-0.027313232421875,3.211973956768688,5.0,-6.6485595703125
1582,-0.026702880859375,3.211973956768688,5.0,-6.646728515625
1583,-0.02716064453125,3.211973956768688,5.0,-6.6455078125
1584,-0.0274658203125,3.211973956768688,5.0,-6.64337158203125
1585,-0.028076171875,3.211973956768688,5.0,-6.64703369140625
1586,-0.029296875,3.211973956768688,5.0,-6.6473388671875
1587,-0.029296875,3.211973956768688,5.0,-6.64581298828125
1588,-0.029449462890625,3.211973956768688,5.0,-6.646728515625
1589,-0.0299072265625,3.211973956768688,5.0,-6.64825439453125
1590,-0.0299072265625,3.211973956768688,5.0,-6.64794921875
1591,-0.029754638671875,3.211973956768688,5.0,-6.646728515625
1592,-0.029754638671875,3.211973956768688,5.0,-6.64642333984375
1593,-0.028533935546875,3.208922198956188,5.0,-6.6497802734375
1594,-0.027618408203125,3.208922198956188,5.0,-6.64154052734375
1595,-0.025482177734375,3.208922198956188,5.0,-6.63909912109375
1596,-0.023956298828125,3.208922198956188,5.0,-6.6375732421875
1597,-0.02288818359375,3.208922198956188,5.0,-6.63818359375
1598,-0.0213623046875,3.208922198956188,5.0,-6.63726806640625
1599,-0.01983642578125,3.208922198956188,5.0,-6.6375732421875
1600,-0.01861572265625,3.208922198956188,5.0,-6.63604736328125
1601,-0.018463134765625,3.208922198956188,5.0,-6.6357421875
1602,-0.018463134765625,3.208922198956188,5.0,-6.64031982421875
1603,-0.01953125,3.208922198956188,5.0,-6.64215087890625
1604,-0.01983642578125,3.208922198956188,5.0,-6.6424560546875
1605,-0.020904541015625,3.208922198956188,5.0,-6.6412353515625
1606,-0.021209716796875,3.208922198956188,5.0,-6.6436767578125
1607,-0.0213623046875,3.208922198956188,5.0,-6.64215087890625
1608,-0.021820068359375,3.208922198956188,5.0,-6.6400146484375
1609,-0.02197265625,3.213499835674938,5.0,-6.64276123046875
1610,-0.02166748046875,3.213499835674938,5.0,-6.64093017578125
1611,-0.02166748046875,3.213499835674938,5.0,-6.63909912109375
1612,-0.021209716796875,3.213499835674938,5.0,-6.6375732421875
1613,-0.020751953125,3.213499835674938,5.0,-6.6375732421875
1614,-0.020751953125,3.213499835674938,5.0,-6.636962890625
1615,-0.021514892578125,3.213499835674938,5.0,-6.636962890625
1616,-0.022430419921875,3.213499835674938,5.0,-6.63787841796875
1617,-0.022430419921875,3.210448077862438,5.0,-6.63726806640625
1618,-0.022125244140625,3.210448077862438,5.0,-6.63787841796875
1619,-0.0213623046875,3.210448077862438,5.0,-6.6436767578125
1620,-0.021209716796875,3.210448077862438,5.0,-6.6455078125
1621,-0.02044677734375,3.210448077862438,5.0,-6.64215087890625
1622,-0.01983642578125,3.210448077862438,5.0,-6.64581298828125
1623,-0.019683837890625,3.210448077862438,5.0,-6.64337158203125
1624,-0.01983642578125,3.210448077862438,5.0,-6.63970947265625
1625,-0.01922607421875,3.211973956768688,5.0,-6.6400146484375
1626,-0.01953125,3.211973956768688,5.0,-6.64459228515625
1627,-0.018768310546875,3.211973956768688,5.0,-6.64276123046875
1628,-0.01861572265625,3.211973956768688,5.0,-6.641845703125
1629,-0.018310546875,3.211973956768688,5.0,-6.64276123046875
1630,-0.019378662109375,3.211973956768688,5.0,-6.6455078125
1631,-0.019378662109375,3.211973956768688,5.0,-6.64306640625
1632,-0.019683837890625,3.211973956768688,5.0,-6.6424560546875
1633,-0.01983642578125,3.208922198956188,5.0,-6.646728515625
1634,-0.01953125,3.208922198956188,5.0,-6.6412353515625
1635,-0.01953125,3.208922198956188,5.0,-6.6387939453125
1636,-0.018768310546875,3.208922198956188,5.0,-6.63818359375
1637,-0.018463134765625,3.208922198956188,5.0,-6.63665771484375
1638,-0.01861572265625,3.208922198956188,5.0,-6.6375732421875
1639,-0.018463134765625,3.208922198956188,5.0,-6.6375732421875
1640,-0.018463134765625,3.208922198956188,5.0,-6.63665771484375
1641,-0.018463134765625,3.211973956768688,5.0,-6.63665771484375
1642,-0.01922607421875,3.211973956768688,5.0,-6.636962890625
1643,-0.01983642578125,3.211973956768688,5.0,-6.64276123046875
1644,-0.020751953125,3.211973956768688,5.0,-6.64459228515625
1645,-0.021209716796875,3.211973956768688,5.0,-6.641845703125
1646,-0.0225830078125,3.211973956768688,5.0,-6.64398193359375
1647,-0.023040771484375,3.211973956768688,5.0,-6.64459228515625
1648,-0.0244140625,3.211973956768688,5.0,-6.64642333984375
1649,-0.02532958984375,3.210448077862438,5.0,-6.644287109375
1650,-0.025787353515625,3.210448077862438,5.0,-6.6473388671875
1651,-0.025787353515625,3.210448077862438,5.0,-6.640625
1652,-0.02471923828125,3.210448077862438,5.0,-6.63909912109375
1653,-0.0225830078125,3.210448077862438,5.0,-6.6375732421875
1654,-0.019989013671875,3.210448077862438,5.0,-6.63726806640625
1655,-0.016937255859375,3.210448077862438,5.0,-6.6363525390625
1656,-0.012969970703125,3.210448077862438,5.0,-6.6357421875
1657,-0.008544921875,3.210448077862438,5.0,-6.63543701171875
1658,-0.00518798828125,3.210448077862438,5.0,-6.63543701171875
1659,-0.0018310546875,3.210448077862438,5.0,-6.6357421875
1660,-0.00030517578125,3.210448077862438,5.0,-6.63970947265625
1661,0.00030517578125,3.210448077862438,5.0,-6.64031982421875
1662,-0.000762939453125,3.210448077862438,5.0,-6.6387939453125
1663,-0.0006103515625,3.210448077862438,5.0,-6.64031982421875
1664,-0.00152587890625,3.210448077862438,5.0,-6.64031982421875
1665,-0.000457763671875,3.207396320049938,5.0,-6.64215087890625
1666,-0.00091552734375,3.207396320049938,5.0,-6.639404296875
1667,-0.000457763671875,3.207396320049938,5.0,-6.64306640625
1668,0.000762939453125,3.207396320049938,5.0,-6.640625
1669,0.00213623046875,3.207396320049938,5.0,-6.64154052734375
1670,0.003814697265625,3.207396320049938,5.0,-6.63818359375
1671,0.0054931640625,3.207396320049938,5.0,-6.6412353515625
1672,0.008392333984375,3.207396320049938,5.0,-6.6387939453125
1673,0.010833740234375,3.211973956768688,5.0,-6.63909912109375
1674,0.01312255859375,3.211973956768688,5.0,-6.63787841796875
1675,0.015106201171875,3.211973956768688,5.0,-6.639404296875
1676,0.016632080078125,3.211973956768688,5.0,-6.636962890625
1677,0.019989013671875,3.211973956768688,5.0,-6.63726806640625
1678,0.023040771484375,3.211973956768688,5.0,-6.636962890625
1679,0.02471923828125,3.211973956768688,5.0,-6.634521484375
1680,0.02593994140625,3.211973956768688,5.0,-6.63421630859375
1681,0.027313232421875,3.208922198956188,5.0,-6.63421630859375
1682,0.028076171875,3.208922198956188,5.0,-6.6339111328125
1683,0.029449462890625,3.208922198956188,5.0,-6.6351318359375
1684,0.030517578125,3.208922198956188,5.0,-6.6387939453125
1685,0.031890869140625,3.208922198956188,5.0,-6.63909912109375
1686,0.03326416015625,3.208922198956188,5.0,-6.63848876953125
1687,0.03387451171875,3.208922198956188,5.0,-6.64093017578125
1688,0.03509521484375,3.208922198956188,5.0,-6.63909912109375
1689,0.03509521484375,3.208922198956188,5.0,-6.63970947265625
1690,0.035858154296875,3.208922198956188,5.0,-6.6363525390625
1691,0.035858154296875,3.208922198956188,5.0,-6.640625
1692,0.03509521484375,3.208922198956188,5.0,-6.63543701171875
1693,0.034637451171875,3.208922198956188,5.0,-6.634521484375
1694,0.033111572265625,3.208922198956188,5.0,-6.63360595703125
1695,0.03204345703125,3.208922198956188,5.0,-6.6326904296875
1696,0.029754638671875,3.208922198956188,5.0,-6.6339111328125
1697,0.027923583984375,3.210448077862438,5.0,-6.6339111328125
1698,0.025634765625,3.210448077862438,5.0,-6.63482666015625
1699,0.0244140625,3.210448077862438,5.0,-6.63360595703125
1700,0.02288818359375,3.210448077862438,5.0,-6.6400146484375
1701,0.020599365234375,3.210448077862438,5.0,-6.63848876953125
1702,0.018463134765625,3.210448077862438,5.0,-6.64093017578125
1703,0.016021728515625,3.210448077862438,5.0,-6.644287109375
1704,0.01373291015625,3.210448077862438,5.0,-6.6424560546875
1705,0.010833740234375,3.198241046612438,5.0,-6.641845703125
1706,0.007476806640625,3.198241046612438,5.0,-6.63848876953125
1707,0.003509521484375,3.198241046612438,5.0,-6.64337158203125
1708,0.0,3.198241046612438,5.0,-6.64398193359375
1709,-0.004119873046875,3.198241046612438,5.0,-6.640625
1710,-0.008392333984375,3.198241046612438,5.0,-6.6412353515625
1711,-0.012969970703125,3.198241046612438,5.0,-6.64398193359375
1712,-0.01678466796875,3.198241046612438,5.0,-6.6461181640625
1713,-0.01983642578125,3.201292804424938,5.0,-6.64398193359375
1714,-0.0238037109375,3.201292804424938,5.0,-6.6455078125
1715,-0.026397705078125,3.201292804424938,5.0,-6.64947509765625
1716,-0.030059814453125,3.201292804424938,5.0,-6.6448974609375
1717,-0.03265380859375,3.201292804424938,5.0,-6.644287109375
1718,-0.03631591796875,3.201292804424938,5.0,-6.64581298828125
1719,-0.03875732421875,3.201292804424938,5.0,-6.64520263671875
1720,-0.041046142578125,3.201292804424938,5.0,-6.64581298828125
1721,-0.043487548828125,3.196715167706188,5.0,-6.64459228515625
1722,-0.046234130859375,3.196715167706188,5.0,-6.64520263671875
1723,-0.048980712890625,3.196715167706188,5.0,-6.6455078125
1724,-0.0506591796875,3.196715167706188,5.0,-6.6534423828125
1725,-0.052032470703125,3.196715167706188,5.0,-6.6510009765625
1726,-0.051422119140625,3.196715167706188,5.0,-6.65435791015625
1727,-0.0518798828125,3.196715167706188,5.0,-6.65679931640625
1728,-0.052032470703125,3.196715167706188,5.0,-6.6552734375
1729,-0.0518798828125,3.198241046612438,5.0,-6.654052734375
1730,-0.052032470703125,3.198241046612438,5.0,-6.6510009765625
1731,-0.0518798828125,3.198241046612438,5.0,-6.6546630859375
1732,-0.052490234375,3.198241046612438,5.0,-6.65496826171875
1733,-0.053558349609375,3.198241046612438,5.0,-6.65191650390625
1734,-0.053558349609375,3.198241046612438,5.0,-6.6546630859375
1735,-0.0531005859375,3.198241046612438,5.0,-6.656494140625
1736,-0.05340576171875,3.198241046612438,5.0,-6.65679931640625
1737,-0.053253173828125,3.196715167706188,5.0,-6.65435791015625
1738,-0.0531005859375,3.196715167706188,5.0,-6.65313720703125
1739,-0.05218505859375,3.196715167706188,5.0,-6.65771484375
1740,-0.051727294921875,3.196715167706188,5.0,-6.64764404296875
1741,-0.050811767578125,3.196715167706188,5.0,-6.646728515625
1742,-0.0506591796875,3.196715167706188,5.0,-6.64703369140625
1743,-0.050506591796875,3.196715167706188,5.0,-6.64642333984375
1744,-0.0506591796875,3.196715167706188,5.0,-6.64764404296875
1745,-0.051422119140625,3.192137530987438,5.0,-6.64703369140625
1746,-0.052490234375,3.192137530987438,5.0,-6.64764404296875
1747,-0.05401611328125,3.192137530987438,5.0,-6.64794921875
1748,-0.05523681640625,3.192137530987438,5.0,-6.65283203125
1749,-0.055694580078125,3.192137530987438,5.0,-6.65496826171875
1750,-0.0567626953125,3.192137530987438,5.0,-6.65252685546875
1751,-0.05706787109375,3.192137530987438,5.0,-6.65496826171875
1752,-0.0567626953125,3.192137530987438,5.0,-6.6552734375
1753,-0.057373046875,3.201292804424938,5.0,-6.6546630859375
1754,-0.055999755859375,3.201292804424938,5.0,-6.65191650390625
1755,-0.055084228515625,3.201292804424938,5.0,-6.65496826171875
1756,-0.053863525390625,3.201292804424938,5.0,-6.65435791015625
1757,-0.052032470703125,3.201292804424938,5.0,-6.6558837890625
1758,-0.050506591796875,3.201292804424938,5.0,-6.65191650390625
1759,-0.04791259765625,3.201292804424938,5.0,-6.6552734375
1760,-0.045623779296875,3.201292804424938,5.0,-6.65130615234375
1761,-0.044708251953125,3.195189288799938,0.0,-6.65008544921875
1762,-0.043487548828125,3.195189288799938,0.0,-6.64794921875
1763,-0.0433349609375,3.195189288799938,0.0,-6.65008544921875
1764,-0.043487548828125,3.195189288799938,0.0,-6.646728515625
1765,-0.043182373046875,3.195189288799938,0.0,-6.64337158203125
1766,-0.04241943359375,3.195189288799938,0.0,-6.64459228515625
1767,-0.041961669921875,3.195189288799938,0.0,-6.64459228515625
1768,-0.042266845703125,3.195189288799938,0.0,-6.64459228515625
1769,-0.043182373046875,3.196715167706188,0.0,-6.6448974609375
1770,-0.042877197265625,3.196715167706188,0.0,-6.64459228515625
1771,-0.041961669921875,3.196715167706188,0.0,-6.64520263671875
1772,-0.040435791015625,3.196715167706188,0.0,-6.64794921875
1773,-0.037994384765625,3.196715167706188,0.0,-6.6497802734375
1774,-0.03387451171875,3.196715167706188,0.0,-6.6461181640625
1775,-0.028533935546875,3.196715167706188,0.0,-6.64825439453125
1776,-0.0225830078125,3.196715167706188,0.0,-6.64459228515625
1777,-0.01617431640625,3.196715167706188,0.0,-6.64398193359375
1778,-0.00946044921875,3.196715167706188,0.0,-6.639404296875
1779,-0.0030517578125,3.196715167706188,0.0,-6.644287109375
1780,0.004119873046875,3.196715167706188,0.0,-6.63909912109375
1781,0.011444091796875,3.196715167706188,0.0,-6.63848876953125
1782,0.0189208984375,3.196715167706188,0.0,-6.6387939453125
1783,0.02655029296875,3.196715167706188,0.0,-6.63665771484375
1784,0.034027099609375,3.196715167706188,0.0,-6.63482666015625
1785,0.041046142578125,3.198241046612438,0.0,-6.63330078125
1786,0.049591064453125,3.198241046612438,0.0,-6.63360595703125
1787,0.059967041015625,3.198241046612438,0.0,-6.63330078125
1788,0.072784423828125,3.198241046612438,0.0,-6.639404296875
1789,0.086212158203125,3.198241046612438,0.0,-6.6387939453125
1790,0.101470947265625,3.198241046612438,0.0,-6.636962890625
1791,0.11688232421875,3.198241046612438,0.0,-6.63970947265625
1792,0.13153076171875,3.198241046612438,0.0,-6.63787841796875
1793,0.147857666015625,3.199766925518688,0.0,-6.634521484375
1794,0.16357421875,3.199766925518688,0.0,-6.6326904296875
1795,0.17974853515625,3.199766925518688,0.0,-6.6387939453125
1796,0.196685791015625,3.199766925518688,0.0,-6.6339111328125
1797,0.2142333984375,3.199766925518688,0.0,-6.63543701171875
1798,0.230560302734375,3.199766925518688,0.0,-6.63421630859375
1799,0.246124267578125,3.199766925518688,0.0,-6.636962890625
1800,0.2593994140625,3.199766925518688,0.0,-6.6326904296875
1801,0.269317626953125,3.199766925518688,0.0,-6.632080078125
1802,0.27679443359375,3.199766925518688,0.0,-6.634521484375
1803,0.279388427734375,3.199766925518688,0.0,-6.63055419921875
1804,0.27862548828125,3.199766925518688,0.0,-6.62841796875
1805,0.2734375,3.199766925518688,0.0,-6.62750244140625
1806,0.262908935546875,3.199766925518688,0.0,-6.6290283203125
1807,0.24566650390625,3.199766925518688,0.0,-6.6302490234375
1808,0.2227783203125,3.199766925518688,0.0,-6.63055419921875
1809,0.19378662109375,3.196715167706188,0.0,-6.6314697265625
1810,0.160064697265625,3.196715167706188,0.0,-6.63238525390625
1811,0.124053955078125,3.196715167706188,0.0,-6.63421630859375
1812,0.0860595703125,3.196715167706188,0.0,-6.6412353515625
1813,0.048828125,3.196715167706188,0.0,-6.6436767578125
1814,0.013580322265625,3.196715167706188,0.0,-6.64154052734375
1815,-0.018768310546875,3.196715167706188,0.0,-6.64886474609375
1816,-0.04730224609375,3.196715167706188,0.0,-6.65557861328125
1817,-0.070953369140625,3.201292804424938,0.0,-6.6644287109375
1818,-0.089569091796875,3.201292804424938,0.0,-6.666259765625
1819,-0.103912353515625,3.201292804424938,0.0,-6.67510986328125
1820,-0.1129150390625,3.201292804424938,0.0,-6.6693115234375
1821,-0.1177978515625,3.201292804424938,0.0,-6.66900634765625
1822,-0.121002197265625,3.201292804424938,0.0,-6.671142578125
1823,-0.121612548828125,3.201292804424938,0.0,-6.67144775390625
1824,-0.121002197265625,3.201292804424938,0.0,-6.6705322265625
1825,-0.11962890625,3.198241046612438,0.0,-6.6693115234375
1826,-0.1171875,3.198241046612438,0.0,-6.66839599609375
1827,-0.114593505859375,3.198241046612438,0.0,-6.66900634765625
1828,-0.11260986328125,3.198241046612438,0.0,-6.6754150390625
1829,-0.110015869140625,3.198241046612438,0.0,-6.673583984375
1830,-0.106964111328125,3.198241046612438,0.0,-6.6729736328125
1831,-0.10498046875,3.198241046612438,0.0,-6.67266845703125
1832,-0.10223388671875,3.198241046612438,0.0,-6.67327880859375
1833,-0.100860595703125,3.198241046612438,0.0,-6.66900634765625
1834,-0.09857177734375,3.198241046612438,0.0,-6.668701171875
1835,-0.09735107421875,3.198241046612438,0.0,-6.67205810546875
1836,-0.096282958984375,3.198241046612438,0.0,-6.6729736328125
1837,-0.094757080078125,3.198241046612438,0.0,-6.66961669921875
1838,-0.09368896484375,3.198241046612438,0.0,-6.6693115234375
1839,-0.0927734375,3.198241046612438,0.0,-6.6717529296875
1840,-0.092315673828125,3.198241046612438,0.0,-6.66900634765625
1841,-0.09124755859375,3.198241046612438,0.0,-6.67022705078125
1842,-0.09063720703125,3.198241046612438,0.0,-6.66656494140625
1843,-0.090179443359375,3.198241046612438,0.0,-6.67083740234375
1844,-0.090789794921875,3.198241046612438,0.0,-6.6650390625
1845,-0.090179443359375,3.198241046612438,0.0,-6.6644287109375
1846,-0.09063720703125,3.198241046612438,0.0,-6.663818359375
1847,-0.090179443359375,3.198241046612438,0.0,-6.66229248046875
1848,-0.0897216796875,3.198241046612438,0.0,-6.66229248046875
1849,-0.090484619140625,3.198241046612438,0.0,-6.661376953125
1850,-0.09063720703125,3.198241046612438,0.0,-6.66107177734375
1851,-0.09063720703125,3.198241046612438,0.0,-6.66168212890625
1852,-0.09033203125,3.198241046612438,0.0,-6.66839599609375
1853,-0.089874267578125,3.198241046612438,0.0,-6.66839599609375
1854,-0.089263916015625,3.198241046612438,0.0,-6.6668701171875
1855,-0.088653564453125,3.198241046612438,0.0,-6.6680908203125
1856,-0.087432861328125,3.198241046612438,0.0,-6.6656494140625
1857,-0.086212158203125,3.201292804424938,0.0,-6.66839599609375
1858,-0.084381103515625,3.201292804424938,0.0,-6.6650390625
1859,-0.08331298828125,3.201292804424938,0.0,-6.66900634765625
1860,-0.081939697265625,3.201292804424938,0.0,-6.66015625
1861,-0.080413818359375,3.201292804424938,0.0,-6.65863037109375
1862,-0.079345703125,3.201292804424938,0.0,-6.6595458984375
1863,-0.0775146484375,3.201292804424938,0.0,-6.65863037109375
1864,-0.0762939453125,3.201292804424938,0.0,-6.65771484375
1865,-0.075225830078125,3.199766925518688,0.0,-6.656494140625
1866,-0.0738525390625,3.199766925518688,0.0,-6.65740966796875
1867,-0.072479248046875,3.199766925518688,0.0,-6.65618896484375
1868,-0.071868896484375,3.199766925518688,0.0,-6.6632080078125
1869,-0.07232666015625,3.199766925518688,0.0,-6.66168212890625
1870,-0.07080078125,3.199766925518688,0.0,-6.66168212890625
1871,-0.070343017578125,3.199766925518688,0.0,-6.66534423828125
1872,-0.070648193359375,3.199766925518688,0.0,-6.6632080078125
1873,-0.069732666015625,3.195189288799938,0.0,-6.66534423828125
1874,-0.069580078125,3.195189288799938,0.0,-6.66107177734375
1875,-0.06866455078125,3.195189288799938,0.0,-6.66412353515625
1876,-0.06805419921875,3.195189288799938,0.0,-6.663818359375
1877,-0.06683349609375,3.195189288799938,0.0,-6.658935546875
1878,-0.066375732421875,3.195189288799938,0.0,-6.6619873046875
1879,-0.064849853515625,3.195189288799938,0.0,-6.66412353515625
1880,-0.063323974609375,3.195189288799938,0.0,-6.66107177734375
1881,-0.063323974609375,3.196715167706188,0.0,-6.661376953125
1882,-0.0634765625,3.196715167706188,0.0,-6.65863037109375
1883,-0.063323974609375,3.196715167706188,0.0,-6.66015625
1884,-0.0628662109375,3.196715167706188,0.0,-6.65740966796875
1885,-0.063323974609375,3.196715167706188,0.0,-6.65496826171875
1886,-0.063018798828125,3.196715167706188,0.0,-6.656494140625
1887,-0.063018798828125,3.196715167706188,0.0,-6.65679931640625
1888,-0.063629150390625,3.196715167706188,0.0,-6.65557861328125
1889,-0.063323974609375,3.196715167706188,0.0,-6.65435791015625
1890,-0.062408447265625,3.196715167706188,0.0,-6.6534423828125
1891,-0.061492919921875,3.196715167706188,0.0,-6.654052734375
1892,-0.060272216796875,3.196715167706188,0.0,-6.65863037109375
1893,-0.058441162109375,3.196715167706188,0.0,-6.6595458984375
1894,-0.055999755859375,3.196715167706188,0.0,-6.6558837890625
1895,-0.0543212890625,3.196715167706188,0.0,-6.65802001953125
1896,-0.051116943359375,3.196715167706188,0.0,-6.65557861328125
1897,-0.047760009765625,3.196715167706188,0.0,-6.6558837890625
1898,-0.045623779296875,3.196715167706188,0.0,-6.6522216796875
1899,-0.043792724609375,3.196715167706188,0.0,-6.65618896484375
1900,-0.042572021484375,3.196715167706188,0.0,-6.64886474609375
1901,-0.041961669921875,3.196715167706188,0.0,-6.64764404296875
1902,-0.042266845703125,3.196715167706188,0.0,-6.64825439453125
1903,-0.041961669921875,3.196715167706188,0.0,-6.64764404296875
1904,-0.0421142578125,3.196715167706188,0.0,-6.64825439453125
1905,-0.0421142578125,3.196715167706188,0.0,-6.64703369140625
1906,-0.042266845703125,3.196715167706188,0.0,-6.64825439453125
1907,-0.0421142578125,3.196715167706188,0.0,-6.6485595703125
1908,-0.04180908203125,3.196715167706188,0.0,-6.65313720703125
1909,-0.0421142578125,3.196715167706188,0.0,-6.65252685546875
1910,-0.041961669921875,3.196715167706188,0.0,-6.654052734375
1911,-0.040740966796875,3.196715167706188,0.0,-6.6534423828125
1912,-0.040283203125,3.196715167706188,0.0,-6.65618896484375
1913,-0.038909912109375,3.201292804424938,0.0,-6.65252685546875
1914,-0.037994384765625,3.201292804424938,0.0,-6.649169921875
1915,-0.037078857421875,3.201292804424938,0.0,-6.65374755859375
1916,-0.035858154296875,3.201292804424938,0.0,-6.654052734375
1917,-0.0347900390625,3.201292804424938,0.0,-6.650390625
1918,-0.034942626953125,3.201292804424938,0.0,-6.6522216796875
1919,-0.03326416015625,3.201292804424938,0.0,-6.65283203125
1920,-0.032501220703125,3.201292804424938,0.0,-6.65374755859375
1921,-0.031585693359375,3.196715167706188,0.0,-6.65130615234375
1922,-0.030670166015625,3.196715167706188,0.0,-6.6510009765625
1923,-0.030670166015625,3.196715167706188,0.0,-6.65374755859375
1924,-0.029754638671875,3.196715167706188,0.0,-6.64764404296875
1925,-0.029754638671875,3.196715167706188,0.0,-6.64520263671875
1926,-0.02838134765625,3.196715167706188,0.0,-6.6448974609375
1927,-0.027923583984375,3.196715167706188,0.0,-6.64581298828125
1928,-0.02838134765625,3.196715167706188,0.0,-6.64581298828125
1929,-0.0274658203125,3.199766925518688,0.0,-6.64520263671875
1930,-0.02685546875,3.199766925518688,0.0,-6.64337158203125
1931,-0.025787353515625,3.199766925518688,0.0,-6.6412353515625
1932,-0.025177001953125,3.199766925518688,0.0,-6.64886474609375
1933,-0.0238037109375,3.199766925518688,0.0,-6.64581298828125
1934,-0.0225830078125,3.199766925518688,0.0,-6.64764404296875
1935,-0.02197265625,3.199766925518688,0.0,-6.65008544921875
1936,-0.020904541015625,3.199766925518688,0.0,-6.64947509765625
1937,-0.019073486328125,3.202818683331188,0.0,-6.646728515625
1938,-0.0177001953125,3.202818683331188,0.0,-6.6455078125
1939,-0.016326904296875,3.202818683331188,0.0,-6.6497802734375
1940,-0.016021728515625,3.202818683331188,0.0,-6.64154052734375
1941,-0.015869140625,3.202818683331188,0.0,-6.640625
1942,-0.016021728515625,3.202818683331188,0.0,-6.6412353515625
1943,-0.016021728515625,3.202818683331188,0.0,-6.6400146484375
1944,-0.015869140625,3.202818683331188,0.0,-6.6400146484375
1945,-0.015869140625,3.198241046612438,0.0,-6.63970947265625
1946,-0.015716552734375,3.198241046612438,0.0,-6.64703369140625
1947,-0.015869140625,3.198241046612438,0.0,-6.64703369140625
1948,-0.01495361328125,3.198241046612438,0.0,-6.64703369140625
1949,-0.01434326171875,3.198241046612438,0.0,-6.6473388671875
1950,-0.012664794921875,3.198241046612438,0.0,-6.6455078125
1951,-0.011444091796875,3.198241046612438,0.0,-6.644287109375
1952,-0.009613037109375,3.198241046612438,0.0,-6.6424560546875
1953,-0.006866455078125,3.199766925518688,0.0,-6.64642333984375
1954,-0.0030517578125,3.199766925518688,0.0,-6.64581298828125
1955,-0.000152587890625,3.199766925518688,0.0,-6.6436767578125
1956,0.001678466796875,3.199766925518688,0.0,-6.644287109375
1957,0.0054931640625,3.199766925518688,0.0,-6.64398193359375
1958,0.008087158203125,3.199766925518688,0.0,-6.64703369140625
1959,0.009765625,3.199766925518688,0.0,-6.6436767578125
