Signal
980.0000000000001
979.4379958534771
978.8951531858871
978.3712978557068
977.8662557214127
977.3798526414818
976.9119144743902
976.4622670786146
976.0307363126323
975.6171480349193
975.2213281039523
974.843102378208
974.482296716163
974.138736976294
973.8122490170776
973.5026586969908
973.2097918745095
972.933474408111
972.6735321562716
972.4297909774681
972.2020767301769
971.9902152728748
971.7940324640384
971.6133541621443
971.4480062256691
971.29781451309
971.1626048828829
971.0422031935244
970.9364353034915
970.845127071261
970.7681043553092
970.7051930141128
970.6562189061484
970.6210078898928
970.5993858238226
970.5911785664143
970.5962119761446
970.61431191149
970.6453042309272
970.6890147929333
970.7452694559843
970.8138940785572
970.8947145191285
970.9875566361746
971.0922462881726
971.208609333599
971.3364716309302
971.4756590386431
971.625997415214
971.78731261912
971.9594305088375
972.1421769428431
972.3353777796133
972.5388588776248
972.7524460953547
972.9759652912792
973.2092423238751
973.4521030516187
973.7043733329867
973.9658790264566
974.2364459905036
974.5159000836054
974.8040671642382
975.1007730908792
975.4058437220039
975.7191049160901
976.0403825316137
976.3695024270519
976.7062904608807
977.0505724915774
977.4021743776182
977.7609219774796
978.1266411496385
978.4991577525717
978.8782976447558
979.263886684667
979.6557507307822
980.0537156415779
980.4576072755311
980.8672514911182
981.2824741468161
981.7031011011006
982.1289582124493
982.5598713393385
982.9956663402446
983.4361690736446
983.8812053980147
984.330601171832
984.784182253573
985.2417745017142
985.7032037747322
986.1682959311037
986.6368768293057
987.1087723278141
987.5838082851062
988.0618105596585
988.542605009947
989.0260174944492
989.5118738716413
990.0
990.4902217380022
990.9823649441241
991.4762554768425
991.9717191946343
992.4685819559753
992.9666696193433
993.465808043214
993.9658230860646
994.4665406063716
994.9677864626113
995.4693865132609
995.9711666167967
996.4729526316952
996.9745704164334
997.4758458294874
997.9766047293347
998.476672974451
998.9758764233135
999.4740409343987
999.9709923661833
1000.4665565771436
1000.9605594257564
1001.4528267704987
1001.943184469847
1002.4314583822776
1002.9174743662672
1003.401058280293
1003.8820359828309
1004.3602333323576
1004.8354761873502
1005.3075904062854
1005.7764018476389
1006.2417363698886
1006.7034198315101
1007.1612780909807
1007.6151370067768
1008.0648224373749
1008.5101602412516
1008.950976276884
1009.3870964027483
1009.8183464773209
1010.2445523590795
1010.6655399064997
1011.0811349780582
1011.4911634322322
1011.8954511274981
1012.2938239223321
1012.6861076752114
1013.0721282446125
1013.451711489012
1013.8246832668863
1014.1908694367125
1014.5500958569667
1014.902188386126
1015.2469728826669
1015.5842752050659
1015.9139212117998
1016.235736761345
1016.5495477121782
1016.8551799227763
1017.1524592516159
1017.4412115571733
1017.7212626979256
1017.9924385323488
1018.2545649189203
1018.5074677161159
1018.7509727824131
1018.9849059762877
1019.2090931562168
1019.423360180677
1019.6275329081452
1019.8214371970977
1020.0048989060109
1020.1777438933619
1020.339798017627
1020.4908871372833
1020.6308371108069
1020.7594737966748
1020.876623053363
1020.9821107393491
1021.0757627131093
1021.15740483312
1021.226862957858
1021.2839629457999
1021.3285306554227
1021.3603919452028
1021.3793726736164
1021.3852986991408
1021.3779958802522
1021.3572900754273
1021.3230071431432
1021.2749729418757
1021.2130133301021
1021.1369541662987
1021.0466213089425
1020.9418406165098
1020.8224379474768
1020.6882391603214
1020.5390701135193
1020.374756665547
1020.195124674882
1020.0
1019.7892608206032
1019.5629946012937
1019.3213411278981
1019.0644401862438
1018.792431562158
1018.5054550414674
1018.2036504099991
1017.8871574535808
1017.5561159580384
1017.2106657092002
1016.8509464928927
1016.4770980949427
1016.0892603011782
1015.6875728974246
1015.2721756695107
1014.843208403263
1014.4008108845081
1013.9451228990737
1013.476284232786
1012.9944346714732
1012.4997140009617
1011.9922620070785
1011.4722184756513
1010.9397231925063
1010.3949159434711
1009.8379365143728
1009.2689246910383
1008.6880202592943
1008.0953630049687
1007.4910927138881
1006.8753491718794
1006.2482721647701
1005.6100014783871
1004.9606768985573
1004.3004382111078
1003.6294252018658
1002.9477776566582
1002.2556353613123
1001.5531381016551
1000.8404256635138
1000.1176378327152
999.3849143950862
998.6423951364545
997.8902198426464
997.1285282994897
996.357460292811
995.5771556084377
994.7877540321965
993.9893953499148
993.1822193474195
992.3663658105376
991.5419745250962
990.7091852769228
989.8681378518437
989.0189720356865
988.1618276142781
987.2968443734457
986.424162099016
985.5439205768167
984.6562595926741
983.7613189324161
982.8592383818693
981.9501577268605
981.0342167532174
980.1115552467669
979.1823129933354
978.2466297787506
977.3046453888398
976.3564996094298
975.4023322263472
974.4422830254194
973.4764917924741
972.5050983133372
971.528242373837
970.5460637597996
969.5587022570523
968.5662976514225
967.568989728737
966.5669182748229
965.5602230755071
964.5490439166172
963.5335205839799
962.513792863422
961.4900005407711
960.4622834018542
959.4307812324979
958.3956338185296
957.3569809457765
956.3149624000657
955.2697179672236
954.221387433078
953.1701105834559
952.116027204184
951.0592770810896
949.9999999999999
948.9383602377133
947.8746200349178
946.8090661232723
945.7419852344358
944.6736641000679
943.604389451827
942.534448021373
941.4641265403648
940.3937117404612
939.3234903533217
938.2537491106057
937.1847747439723
936.1168539850802
935.0502735655891
933.9853202171582
932.922280671446
931.8614416601121
930.8030899148158
929.7475121672164
928.6949951489723
927.6458255917436
926.6002902271889
925.5586757869671
924.5212690027383
923.4883566061612
922.4602253288949
921.4371619025984
920.419453058931
919.4073855295518
918.4012460461203
917.4013213402955
916.4078981437365
915.4212631881022
914.4417032050526
913.4695049262463
912.5049550833419
911.5483404079996
910.599947631878
909.6600634866368
908.7289747039343
907.8069680154302
906.8943301527837
905.9913478476539
905.0983078316999
904.2154968365811
903.3432015939563
902.4817088354849
901.6313052928261
900.7922776976391
899.9649127815828
899.1494972763164
898.3463179134994
897.555661424791
896.7778145418495
896.0130639963351
895.2616965199064
894.5239988442232
893.8002577009436
893.0907598217278
892.3957919382344
891.7156407821227
891.050593085052
890.4009355786811
889.7669549946697
889.1489380646766
888.547171520361
887.9619420933824
887.3935365153994
886.8422415180715
886.308343833058
885.792130192018
885.2938873266104
884.8139019684943
884.3524608493294
883.9098507007743
883.4863582544887
883.0822702421316
882.6978733953619
882.3334544458393
881.9893001252223
881.6656971651702
881.3629322973427
881.0812922533986
880.821063764997
880.5825335637971
880.3659883814584
880.1717149496394
880.0000000000001
879.8510286290513
879.7245793927137
879.6203292117602
879.5379550069634
879.4771336990959
879.437542208931
879.4188574572412
879.4207563647991
879.4429158523775
879.4850128407496
879.5467242506879
879.6277270029648
879.7276980183536
879.8463142176267
879.9832525215573
880.1381898509178
880.3108031264812
880.50076926902
880.7077651993071
880.9314678381156
881.1715541062181
881.4277009243868
881.6995852133953
881.9868838940157
882.2892738870214
882.6064321131846
882.9380354932782
883.2837609480753
883.6432853983486
884.0162857648703
884.4024389684142
884.8014219297522
885.2129115696572
885.6365848089022
886.0721185682602
886.5191897685033
886.9774753304048
887.4466521747373
887.9263972222736
888.4163873937865
888.9162996100487
889.4258107918329
889.9445978599122
890.4723377350589
891.0087073380461
891.5533835896464
892.1060434106328
892.6663637217782
893.2340214438549
893.8086934976357
894.3900568038936
894.9777882834013
895.5715648569319
896.1710634452576
896.7759609691516
897.3859343493866
898.0006605067351
898.6198163619698
899.243078835864
899.8701248491905
900.5006313227216
901.1342751772303
901.7707333334889
902.4096827122711
903.0508002343488
903.6937628204953
904.3382473914836
904.9839308680854
905.6304901710746
906.2776022212234
906.9249439393045
907.5721922460912
908.219024062356
908.8651163088713
909.5101459064103
910.1537897757458
910.7957248376503
911.4356280128968
912.0731762222576
912.7080463865066
913.3399154264152
913.968460262757
914.5933578163043
915.2142850078307
915.8309187581083
916.4429359879097
917.0500136180079
917.6518285691761
918.2480577621866
918.8383781178122
919.4224665568257
919.9999999999999
920.570738431598
921.1347740898444
921.6922822764549
922.2434382931436
922.7884174416255
923.3273950236162
923.8605463408301
924.3880466949828
924.9100713877888
925.4267957209636
925.9383949962213
926.445044515278
926.9469195798479
927.4441954916466
927.9370475523885
928.425651063789
928.9101813275631
929.3908136454254
929.8677233190916
930.341085650276
930.811075940694
931.2778694920606
931.7416416060906
932.2025675844991
932.6608227290008
933.1165823413111
933.570021723145
934.0213161762176
934.4706410022435
934.918171502938
935.3640829800161
935.8085507351922
936.2517500701823
936.6938562867005
937.1350446864625
937.5754905711827
938.0153692425766
938.4548560023591
938.8941261522448
939.3333549939493
939.772717829187
940.2123899596735
940.6525466871233
941.0933633132515
941.5350151397735
941.9776774684038
942.4215256008574
942.8667348388498
943.3134804840955
943.7619378383097
944.2122822032075
944.6646888805035
945.1193331719137
945.5763903791518
946.0360358039335
946.4984447479737
946.9637925129875
947.4322544006897
947.9040057127952
948.3792217510195
948.8580778170772
949.3407492126835
949.8274112395533
950.3182391994012
950.813408393943
951.3130941248929
951.8174716939665
952.3267164028787
952.8410035533445
953.3605084470785
953.8854063857962
954.4158726712122
954.9520826050418
955.4942114889999
956.0424346248019
956.5969273141618
957.1578648587952
957.7254225604174
958.299775720743
958.8810996414867
959.4695696243645
960.0653609710905
960.66864898338
961.2796089629481
961.8984162115095
962.5252460307796
963.1602737224731
963.8036745883051
964.4556239299906
965.1162970492447
965.785869247782
966.464515827318
967.1524120895674
967.8497333362454
968.5566548690668
969.2733519897467
970.0000000000001
970.7366619520491
971.482951900144
972.2383716490418
973.0024230035004
973.7746077682767
974.5544277481285
975.3413847478126
976.1349805720864
976.9347170257081
977.7400959134341
978.550619040022
979.3657882102289
980.1851052288127
981.0080719005305
981.8341900301397
982.6629614223976
983.4938878820612
984.3264712138885
985.1602132226362
985.9946157130623
986.8291804899235
987.6634093579776
988.4968041219817
989.328866586693
990.1590985568697
990.987001837268
991.8120782326458
992.6338295477608
993.4517575873697
994.26536415623
995.0741510590993
995.8776201007348
996.6752730858939
997.4666118193336
998.2511381058118
999.0283537500853
999.7977605569121
1000.5588603310487
1001.3111548772531
1002.0541460002828
1002.7873355048944
1003.5102251958457
1004.2223168778941
1004.9231123557969
1005.6121134343113
1006.2888219181945
1006.9527396122043
1007.6033683210978
1008.2402098496322
1008.8627660025651
1009.470538584654
1010.0630294006556
1010.6397402553278
1011.2001729534279
1011.7438292997134
1012.2702110989408
1012.7788201558683
1013.2691582752526
1013.7407272618517
1014.1930289204231
1014.6255650557232
1015.0378374725098
1015.4293479755405
1015.7995983695724
1016.148090459363
1016.4743260496693
1016.7778069452487
1017.0580349508591
1017.3145118712574
1017.546739511201
1017.754219675447
1017.9364541687532
1018.0929447958769
1018.2231933615753
1018.3267016706054
1018.4029715277252
1018.4515047376914
1018.471803105262
1018.4633684351936
1018.4257025322445
1018.3583072011712
1018.2606842467314
1018.1323354736822
1017.9727626867814
1017.7814676907859
1017.5579522904536
1017.3017182905413
1017.0122674958062
1016.6891017110063
1016.3317227408986
1015.9396323902404
1015.5123324637889
1015.049324766302
1014.5501111025363
1014.01419327725
1013.4410730951995
1012.8302523611433
1012.1812328798375
1011.4935164560401
1010.7666048945083
1010.0
1009.193456117735
1008.3477377547858
1007.46386195869
1006.5428457769825
1005.5857062571998
1004.593460446878
1003.5671253935529
1002.507718144761
1001.4162557480383
1000.2937552509214
999.1412337009453
997.959708145647
996.7501956325622
995.513713209227
994.2512779231779
992.9639068219503
991.6526169530808
990.3184253641057
988.9623491025606
987.585405215982
986.1886107519055
984.7729827578676
983.3395382814047
981.8892943700522
980.4232680713466
978.942476432824
977.4479365020205
975.9406653264721
974.421679953715
972.891997431285
971.3526348067187
969.8046091275521
968.2489374413208
966.6866367955613
965.1187242378098
963.5462168156024
961.9701315764751
960.3914855679637
958.8112958376049
957.2305794329343
955.6503534014886
954.0716347908028
952.4954406484144
950.9227880218584
949.3546939586713
947.7921755063895
946.2362497125486
944.6879336246848
943.1482442903346
941.6181987570337
940.0988140723183
938.5911072837247
937.0960954387886
935.6147955850465
934.1482247700342
932.6974000412882
931.2633384463443
929.8470570327385
928.449572848007
927.0719029396862
925.715064355312
924.3800741424202
923.0679493485472
921.7797070212293
920.5163642080023
919.2789379564026
918.0684453139656
916.8859033282281
915.7323290467261
914.6087395169957
913.5161517865727
912.4555829029937
911.428049913794
910.4345698665106
909.4761598086791
908.5538367878358
907.6686178515164
906.8215200472578
906.0135604225954
905.2457560250656
904.5191239022045
903.8346811015479
903.1934446706324
902.5964316569938
902.0446591081682
901.5391440716918
901.0809035951004
900.6709547259306
900.3103145117184
899.9999999999997
899.7407392433453
899.5321043144654
899.3733782911046
899.2638442510076
899.2027852719197
899.1894844315849
899.2232248077481
899.3032894781543
899.4289615205482
899.5995240126742
899.8142600322775
900.0724526571026
900.3733849648944
900.7163400333975
901.1006009403563
901.5254507635165
901.9901725806218
902.4940494694176
903.0363645076485
903.6164007730589
904.2334413433938
904.8867692963983
905.5756677098165
906.2994196613936
907.0573082288741
907.8486164900029
908.6726275225246
909.5286244041841
910.4158902127259
911.333708025895
912.2813609214362
913.2581319770937
914.263304270613
915.2961608797385
916.3559848822147
917.4420593557865
918.5536673781987
919.6900920271961
920.8506163805234
922.0345235159255
923.2410965111465
924.469618443932
925.719372392026
926.989641433174
928.2797086451203
929.5888571056093
930.9163698923865
932.2615300831958
933.6236207557829
935.0019249878916
936.3957258572673
937.8043064416546
939.2269498187983
940.6629390664426
942.1115572623329
943.5720874842137
945.0438128098297
946.5260163169256
948.0179810832461
949.5189901865364
951.0283267045406
952.5452737150039
954.0691142956709
955.5991315242863
957.1346084785948
958.6748282363417
960.2190738752706
961.766628473127
963.3167751076558
964.8687968566012
966.4219767977083
967.9755980087219
969.5289435673865
971.0812965514472
972.631940038648
974.1801571067347
975.7252308334512
977.2664442965427
978.8030805737534
980.3344227428287
981.8597538815128
983.3783570675511
984.8895153786875
986.3925118926672
987.8866296872351
989.3711518401358
990.8453614291138
992.3085415319144
993.7599752262814
995.1989455899605
996.6247357006963
998.0366286362328
999.4339074743157
1000.8158552926889
1002.1817551690979
1003.5308901812865
1004.8625434070004
1006.1759979239841
1007.4705368099824
1008.7454431427392
1010.0
1011.233648697255
1012.4464635009764
1013.6386769153816
1014.8105214446883
1015.962229593113
1017.0940338648751
1018.206166764191
1019.2988607952782
1020.3723484623548
1021.426862269638
1022.4626347213457
1023.4798983216955
1024.478885574904
1025.4598289851901
1026.4229610567709
1027.3685142938634
1028.2967212006856
1029.207814281455
1030.1020260403902
1030.979588981707
1031.8407356096236
1032.6856984283581
1033.5147099421279
1034.32800265515
1035.1258090716424
1035.9083616958226
1036.6758930319083
1037.428635584117
1038.1668218566663
1038.8906843537734
1039.6004555796562
1040.2963680385326
1040.9786542346196
1041.647546672135
1042.303277855296
1042.946080288321
1043.5761864754265
1044.1938289208308
1044.7992401287515
1045.392652603406
1045.9742988490118
1046.544411369786
1047.1032226699472
1047.6509652537125
1048.1878716252993
1048.714174288925
1049.2301057488075
1049.7358985091646
1050.2317850742136
1050.7179979481718
1051.1947696352568
1051.6623326396866
1052.1209194656788
1052.57076261745
1053.0120945992194
1053.4451479152028
1053.870155069619
1054.2873485666853
1054.6969609106193
1055.0992246056383
1055.4943721559596
1055.8826360658015
1056.264248839381
1056.639442980916
1057.008450994624
1057.3715053847222
1057.7288386554292
1058.0806833109616
1058.427271855537
1058.7688367933729
1059.1056106286876
1059.437825865698
1059.7657150086222
1060.0895105616773
1060.4094450290809
1060.7257509150506
1061.0386607238045
1061.3484069595593
1061.6552221265333
1061.9593387289437
1062.2609892710082
1062.5604062569441
1062.8578221909695
1063.1534695773012
1063.4475809201574
1063.7403887237556
1064.032125492313
1064.3230237300477
1064.6133159411768
1064.9032346299182
1065.193012300489
1065.4828814571074
1065.7730746039902
1066.0638242453558
1066.3553628854213
1066.6479230284042
1066.941737178522
1067.237037839993
1067.5340575170342
1067.833028713863
1068.1341839346976
1068.4377556837549
1068.7439764652524
1069.0530787834082
1069.3652951424397
1069.6808580465645
1070.0000000000002
1070.3228775271564
1070.6493432332127
1070.9791737435405
1071.3121456835122
1071.6480356784987
1071.986620353872
1072.327676335004
1072.670980247266
1073.01630871603
1073.3634383666672
1073.7121458245501
1074.0622077150497
1074.413400663538
1074.7655012953865
1075.1182862359674
1075.4715321106517
1075.8250155448115
1076.1785131638183
1076.531801593044
1076.88465745786
1077.236857383638
1077.58817799575
1077.938395919568
1078.2872877804625
1078.6346302038064
1078.9801998149703
1079.3237732393272
1079.6651271022479
1080.0040380291039
1080.3402826452677
1080.6736375761102
1081.0038794470033
1081.3307848833192
1081.6541305104292
1081.9736929537053
1082.2892488385178
1082.6005747902404
1082.907447434244
1083.2096433958998
1083.5069393005797
1083.7991117736558
1084.0859374404995
1084.3671929264822
1084.6426548569762
1084.9120998573526
1085.1753045529838
1085.4320455692407
1085.682099531496
1085.9252430651197
1086.1612527954856
1086.3899053479643
1086.610977347927
1086.8242454207455
1087.0294861917928
1087.2264762864393
1087.4149923300572
1087.5948109480182
1087.7657087656935
1087.9274624084555
1088.0798485016753
1088.2226436707247
1088.355624540976
1088.4785677378
1088.591249886569
1088.6934476126544
1088.7849375414278
1088.8654962982614
1088.9349005085264
1088.9929267975947
1089.0393517908378
1089.0739521136275
1089.0965043913359
1089.106785249334
1089.1045713129936
1089.0896392076872
1089.0617655587853
1089.0207269916605
1088.9663001316837
1088.8982616042276
1088.816388034663
1088.7204560483624
1088.6102422706963
1088.4855233270373
1088.3460758427573
1088.1916764432274
1088.022101753819
1087.8371283999047
1087.6365330068559
1087.4200922000439
1087.1875826048404
1086.9387808466176
1086.6734635507466
1086.3914073426
1086.0923888475484
1085.776184690964
1085.4425714982185
1085.0913258946837
1084.722224505731
1084.3350439567323
1083.9295608730592
1083.5055518800837
1083.0627936031772
1082.601062667711
1082.120135699057
1081.6197893225876
1081.0998001636735
1080.5599448476871
1080.0
1079.4198679758758
1078.8199540501482
1078.2007892275426
1077.5629045127853
1076.9068309106012
1076.2330994257165
1075.5422410628564
1074.8347868267472
1074.111267722114
1073.372214753683
1072.6181589261791
1071.849631244329
1071.0671627128575
1070.2712843364907
1069.4625271199545
1068.6414220679742
1067.8085001852755
1066.9642924765842
1066.109329946626
1065.2441436001263
1064.369264441811
1063.4852234764057
1062.5925517086364
1061.6917801432285
1060.7834397849074
1059.868061638399
1058.9461767084292
1058.0183159997239
1057.085010517008
1056.1467912650076
1055.2041892484485
1054.257735472056
1053.3079609405565
1052.3553966586749
1051.4005736311371
1050.4440228626688
1049.4862753579957
1048.5278621218436
1047.5693141589381
1046.6111624740051
1045.6539380717695
1044.6981719569576
1043.7443951342955
1042.7931386085081
1041.8449333843212
1040.900310466461
1039.9598008596522
1039.0239355686213
1038.0932455980942
1037.1682619527955
1036.249515637452
1035.3375376567885
1034.4328590155314
1033.536010718406
1032.6475237701377
1031.7679291754528
1030.8977579390764
1030.0375410657348
1029.1878095601533
1028.3490944270575
1027.521926671173
1026.706837297226
1025.9043573099414
1025.1150177140457
1024.3393495142643
1023.5778837153226
1022.8311513219463
1022.0996833388614
1021.3840107707935
1020.6846646224681
1020.0021758986106
1019.3370756039477
1018.6898947432041
1018.0611643211059
1017.4514153423784
1016.8611788117477
1016.2909857339392
1015.741367113679
1015.2128539556924
1014.7059772647051
1014.221268045443
1013.7592573026315
1013.3204760409961
1012.905455265263
1012.5147259801577
1012.1488191904058
1011.808265900733
1011.4935971158652
1011.2053438405277
1010.9440370794463
1010.7102078373468
1010.5043871189545
1010.3271059289958
1010.1788952721957
1010.0602861532803
1009.9718095769747
1009.9139965480055
1009.8873780710977
1009.892485150977
1009.9298487923694
1010.0
1010.103310224918
1010.2395127034616
1010.4081811182925
1010.6088891520724
1010.8412104874627
1011.1047188071245
1011.3989877937199
1011.7235911299109
1012.0781024983578
1012.4620955817229
1012.8751440626678
1013.3168216238535
1013.7867019479421
1014.2843587175945
1014.8093656154731
1015.3612963242387
1015.9397245265532
1016.5442239050775
1017.1743681424739
1017.8297309214039
1018.5098859245287
1019.2144068345099
1019.9428673340092
1020.6948411056875
1021.4699018322071
1022.2676231962294
1023.0875788804152
1023.9293425674274
1024.7924879399266
1025.676588680574
1026.5812184720319
1027.5059509969615
1028.4503599380243
1029.414018977882
1030.396501799196
1031.397382084628
1032.416233516839
1033.452629778491
1034.5061445522456
1035.576351520764
1036.6628243667083
1037.7651367727392
1038.8828624215187
1040.0155749957084
1041.16284817797
1042.3242556509647
1043.4993710973538
1044.6877681997994
1045.8890206409626
1047.102702103505
1048.3283862700882
1049.5656468233742
1050.8140574460235
1052.0731918206986
1053.3426236300609
1054.621926556771
1055.9106742834913
1057.2084404928835
1058.5147988676088
1059.829323090328
1061.1515868437036
1062.4811638103972
1063.8176276730699
1065.1605521143829
1066.5095108169987
1067.8640774635778
1069.2238257367828
1070.5883293192742
1071.9571618937139
1073.3298971427637
1074.706108749085
1076.0853703953392
1077.467255764188
1078.8513385382926
1080.2371924003148
1081.6243910329163
1083.012508118758
1084.4011173405022
1085.78979238081
1087.1781069223432
1088.5656346477633
1089.9519492397314
1091.3366243809091
1092.7192337539582
1094.09935104154
1095.4765499263171
1096.8504040909488
1098.2204872180992
1099.5863729904281
1100.947635090597
1102.303847201269
1103.6545830051039
1104.999416184764
1106.3379204229107
1107.6696694022057
1108.9942368053107
1110.3111963148865
1111.6201216135953
1112.9205863840982
1114.212164309057
1115.4944290711333
1116.7669543529883
1118.0293138372838
1119.2810812066814
1120.5218301438424
1121.7511343314284
1122.968567452101
1124.1737031885216
1125.366115223352
1126.5453772392532
1127.7110629188874
1128.8627459449153
1129.9999999999995
1131.122462121744
1132.230022767526
1133.3226357496656
1134.4002548804835
1135.4628339722997
1136.510326837434
1137.5426872882076
1138.55986913694
1139.5618261959517
1140.548512277563
1141.5198811940945
1142.4758867578662
1143.4164827811974
1144.34162307641
1145.2512614558234
1146.1453517317577
1147.0238477165335
1147.8867032224707
1148.7338720618907
1149.565308047112
1150.3809649904563
1151.180796704243
1151.9647570007924
1152.7327996924255
1153.4848785914614
1154.2209475102215
1154.940960261026
1155.6448706561941
1156.332632508047
1157.0041996289046
1157.6595258310874
1158.298564926915
1158.9212707287086
1159.5275970487878
1160.1174976994728
1160.6909264930844
1161.2478372419428
1161.788183758368
1162.31191985468
1162.818999343199
1163.3093760362465
1163.7830037461413
1164.2398362852043
1164.6798274657558
1165.1029311001155
1165.5091010006047
1165.8982909795427
1166.27045484925
1166.625546422047
1166.9635195102542
1167.2843279261913
1167.5879254821796
1167.8742659905377
1168.143303263587
1168.3949911136478
1168.6292833530404
1168.8461337940837
1169.0454962490999
1169.2273245304077
1169.3915724503286
1169.538193821182
1169.6671424552885
1169.778372164968
1169.8718367625413
1169.9474900603282
1170.0052858706492
1170.0451780058247
1170.0671202781753
1170.0710665000197
1170.0569704836798
1170.0247860414754
1169.9744669857266
1169.9059671287532
1169.8192402828765
1169.7142402604154
1169.5909208736916
1169.4492359350245
1169.2891392567349
1169.1105846511425
1168.9135259305672
1168.6979169073309
1168.463711393752
1168.210863202152
1167.9393261448504
1167.6490540341679
1167.3400006824247
1167.0121199019409
1166.665365505037
1166.2996913040329
1165.9150511112496
1165.5113987390062
1165.0886879996237
1164.6468727054225
1164.1859066687223
1163.7057437018439
1163.2063376171072
1162.6876422268326
1162.1496113433402
1161.5921987789507
1161.0153583459842
1160.41904385676
1159.8032091235998
1159.1678079588235
1158.5127941747503
1157.8381215837019
1157.1437439979977
1156.4296152299576
1155.6956890919032
1154.941919396154
1154.1682599550297
1153.3746645808515
1152.5610870859393
1151.7274812826126
1150.8738009831932
1150.0000000000002
1149.1061112375937
1148.1924839694943
1147.2595465614609
1146.3077273792526
1145.3374547886297
1144.3491571553513
1143.343262845177
1142.3202002238659
1141.2803976571781
1140.2242835108734
1139.15228615071
1138.064833942449
1136.962355251849
1135.845278444669
1134.71403188667
1133.5690439436105
1132.41074298125
1131.2395573653484
1130.055915461665
1128.8602456359592
1127.652976253991
1126.434535681519
1125.2053522843037
1123.9658544281042
1122.71647047868
1121.4576288017906
1120.1897577631953
1118.9132857286543
1117.6286410639264
1116.3362521347715
1115.036547306949
1113.7299549462184
1112.4169034183392
1111.097821089071
1109.7731363241733
1108.4432774894053
1107.108672950527
1105.7697510732976
1104.4269402234768
1103.080668766824
1101.7313650690987
1100.3794574960607
1099.025374413469
1097.6695441870834
1096.312395182664
1094.9543557659688
1093.5958543027587
1092.2373191587924
1090.87917869983
1089.5218612916308
1088.1657952999544
1086.81140909056
1085.459131029207
1084.1093894816559
1082.7626128136646
1081.4192293909944
1080.0796675794036
1078.744355744652
1077.4137222524998
1076.088195468705
1074.7682037590284
1073.4541754892293
1072.1465390250669
1070.845722732301
1069.5521549766906
1068.2662641239958
1066.9884785399759
1065.7192265903905
1064.458936640999
1063.208037057561
1061.9669562058355
1060.7361224515832
1059.5159641605621
1058.306909698533
1057.109387431255
1055.9238257244872
1054.7506529439895
1053.5902974555215
1052.4431876248423
1051.309751817712
1050.19041839989
1049.0856157371347
1047.995772195207
1046.9213161398663
1045.8626759368717
1044.8202799519822
1043.794556550958
1042.7859340995592
1041.7948409635435
1040.8217055086723
1039.866956100704
1038.9310211053985
1038.0143288885156
1037.117307815814
1036.2403862530537
1035.3839925659947
1034.5485551203953
1033.7345022820161
1032.9422624166164
1032.1722638899553
1031.4249350677926
1030.7007043158878
1030.0000000000002
1029.323127731998
1028.6699021081804
1028.0400149709558
1027.4331581627323
1026.8490235259178
1026.2873029029201
1025.747688136148
1025.2298710680084
1024.73354354091
1024.2583973972605
1023.8041244794682
1023.3704166299416
1022.9569656910872
1022.5634635053146
1022.1896019150312
1021.8350727626448
1021.4995678905639
1021.1827791411959
1020.8843983569491
1020.6041173802319
1020.3416280534518
1020.0966222190175
1019.8687917193361
1019.6578283968158
1019.4634240938653
1019.2852706528928
1019.1230599163046
1018.9764837265108
1018.845233925918
1018.7290023569346
1018.627480861969
1018.5403612834292
1018.4673354637224
1018.4080952452572
1018.3623324704421
1018.3297389816842
1018.3100066213922
1018.3028272319737
1018.3078926558369
1018.3248947353898
1018.3535253130404
1018.3934762311968
1018.4444393322672
1018.5061064586591
1018.5781694527807
1018.6603201570404
1018.7522504138458
1018.853652065605
1018.9642169547261
1019.0836369236172
1019.2116038146863
1019.3478094703412
1019.4919457329901
1019.6437044450408
1019.802777448902
1019.9688565869809
1020.141633701686
1020.3208006354251
1020.5060492306062
1020.6970713296375
1020.8935587749271
1021.0952034088825
1021.3016970739119
1021.5127316124244
1021.7279988668264
1021.9471906795268
1022.1699988929333
1022.396115349454
1022.6252318914975
1022.8570403614711
1023.091232601783
1023.3275004548412
1023.5655357630537
1023.8050303688289
1024.0456761145745
1024.287164842698
1024.5291883956086
1024.7714386157131
1025.0136073454205
1025.2553864271383
1025.496467703275
1025.7365430162379
1025.9753042084353
1026.2124431222758
1026.4476516001666
1026.6806214845158
1026.9110446177317
1027.1386128422223
1027.363018000396
1027.5839519346603
1027.801106487423
1028.0141735010927
1028.2228448180772
1028.4268122807848
1028.6257677316228
1028.8194030129998
1029.0074099673236
1029.1894804370022
1029.365306264444
1029.5345792920566
1029.6969913622481
1029.8522343174263
1030.0
1030.1400150232664
1030.2721450840822
1030.3962906501934
1030.5123521893465
1030.6202301692879
1030.7198250577642
1030.8110373225218
1030.8937674313063
1030.9679158518647
1031.0333830519432
1031.0900694992877
1031.1378756616452
1031.1767020067614
1031.2064490023834
1031.2270171162568
1031.2383068161284
1031.240218569744
1031.2326528448507
1031.2155101091942
1031.1886908305212
1031.152095476578
1031.1056245151105
1031.0491784138653
1030.9826576405894
1030.9059626630278
1030.8189939489282
1030.7216519660358
1030.6138371820978
1030.49545006486
1030.3663910820687
1030.226560701471
1030.0758593908124
1029.9141876178392
1029.7414458502983
1029.557534555936
1029.3623542024984
1029.1558052577311
1028.9377881893818
1028.7082034651962
1028.4669515529206
1028.2139329203012
1027.9490480350848
1027.6721973650172
1027.383281377845
1027.0822005413145
1026.7688553231721
1026.4431461911643
1026.1049736130365
1025.7542380565365
1025.3908399894099
1025.0146798794024
1024.6256581942614
1024.2236754017329
1023.8086319695627
1023.3804283654981
1022.9389650572845
1022.4841425126685
1022.0158611993968
1021.5340215852156
1021.0385241378708
1020.5292693251093
1020.0061576146772
1019.469089474321
1018.9179653717864
1018.3526857748204
1017.7731511511691
1017.1792619685789
1016.5709186947964
1015.9480217975672
1015.3104717446384
1014.6581690037557
1013.991014042666
1013.3089073291153
1012.6117493308498
1011.8994405156163
1011.1718813511608
1010.4289723052298
1009.6706138455692
1008.8967064399257
1008.1071505560461
1007.3018466616757
1006.4806952245617
1005.64359671245
1004.7904515930873
1003.9211603342193
1003.0356234035929
1002.1337412689542
1001.2154143980496
1000.2805432586255
999.3290283184281
998.3607700452036
997.3756689066987
996.3736253706595
995.3545399048324
994.3183129769639
993.2648450547998
992.194036606087
991.1057880985717
990.0
988.8767015090028
987.7364367477478
986.5798785692875
985.4076998266735
984.2205733729588
983.0191720611948
981.8041687444346
980.5762362757291
979.336047508132
978.0842752946943
976.8215924884686
975.5486719425073
974.2661865098627
972.9748090435862
971.6752123967309
970.3680694223483
969.0540529734911
967.7338359032113
966.4080910645614
965.0774913105929
963.7427094943585
962.4044184689101
961.0632910873004
959.7200002025814
958.3752186678048
957.0296193360233
955.683875060289
954.338658693654
952.9946430891707
951.6525010998913
950.3129055788672
948.9765293791519
947.6440453537966
946.3161263558538
944.9934452383761
943.676674854415
942.3664880570232
941.0635576992526
939.7685566341555
938.482157714784
937.2050337941905
935.9378577254272
934.6813023615462
933.4360405555996
932.2027451606396
930.9820890297186
929.7747450158885
928.5813859722017
927.4026847517105
926.2393142074668
925.0919471925231
923.9612565599316
922.8479151627439
921.752595854013
920.6759714867904
919.618714914129
918.5814989890803
917.5649965646971
916.5698804940313
915.5968236301348
914.6464988260605
913.7195789348596
912.8167368095856
911.9386453032895
911.085977269024
910.2594055598414
909.4596030287937
908.6872425289336
907.9429969133124
907.2275390349828
906.5415417469972
905.8856779024071
905.2606203542656
904.6670419556242
904.1056155595355
903.5770140190515
903.0819101872244
902.6209769171063
902.1948870617495
901.8043134742064
901.4499290075288
901.1324065147691
900.8524188489797
900.6106388632124
900.4077394105196
900.2443933439537
900.1212735165665
900.0390527814104
899.9984039915377
900.0000000000001
900.0443020105309
900.1309246295867
900.2592708143043
900.4287435218199
900.6387457092711
900.8886803337948
901.177950352528
901.5059587226071
901.8721084011702
902.2758023453533
902.7164435122935
903.193434859128
903.7061793429936
904.2540799210274
904.8365395503662
905.4529611881469
906.1027477915065
906.785302317582
907.5000277235106
908.246326966429
909.0236030034742
909.8312587917834
910.668697288493
911.5353214507403
912.4305342356621
913.3537386003958
914.304337502078
915.2817338978458
916.2853307448355
917.3145310001852
918.3687376210307
919.4473535645101
920.5497817877595
921.6754252479162
922.8236869021172
923.9939697074993
925.1856766211994
926.3982106003546
927.630974602102
928.8833715835782
930.1548045019204
931.4446763142655
932.7523899777501
934.0773484495122
935.4189546866877
936.776611646414
938.1497222858279
939.5376895620667
940.939916432267
942.3558058535655
943.7847607830998
945.2261841780065
946.6794789954229
948.1440481924855
949.6192947263311
951.1046215540974
952.5994316329209
954.1031279199386
955.6151133722873
957.1347909471043
958.6615636015267
960.1948342926905
961.7340059777339
963.2784816137928
964.8276641580048
966.380956567507
967.9377617994354
969.497482810928
971.0595225591212
972.6232840011521
974.1881700941577
975.7535837952746
977.3189280616407
978.883605850392
980.4470201186657
982.0085738235989
983.5676699223288
985.1237113719916
986.676101129725
988.2242421526657
989.7675373979504
991.3053898227164
992.8372023841007
994.3623780392396
995.8803197452712
997.3904304593315
998.8921131385578
1000.384770740087
1001.8678062210562
1003.3406225386024
1004.8026226498619
1006.2532095119727
1007.6917860820706
1009.1177553172936
1010.5305201747781
1011.9294836116612
1013.3140485850801
1014.6836180521715
1016.037594970072
1017.3753822959188
1018.6963829868496
1020.0
1021.2857299017801
1022.553443695684
1023.8031059944797
1025.0346814109337
1026.2481345578133
1027.4434300478854
1028.6205324939174
1029.7794065086757
1030.9200167049282
1032.0423276954416
1033.1463040929827
1034.2319105103193
1035.2991115602174
1036.3478718554452
1037.3781560087687
1038.3899286329558
1039.383154340773
1040.357797744988
1041.313823458367
1042.251196093678
1043.169880263687
1044.0698405811622
1044.9510416588696
1045.8134481095772
1046.6570245460516
1047.4817355810599
1048.2875458273693
1049.0744198977466
1049.8423224049593
1050.591217961774
1051.321071180958
1052.0318466752783
1052.723509057502
1053.396022940396
1054.049352936728
1054.6834636592641
1055.2983197207718
1055.893885734019
1056.4701263117713
1057.0270060667965
1057.5644896118622
1058.0825415597342
1058.5811265231798
1059.0602091149678
1059.5197539478634
1059.9597256346342
1060.380088788047
1060.7808080208702
1061.1618479458689
1061.5231731758113
1061.8647483234643
1062.1865380015952
1062.4885068229703
1062.7706194003574
1063.0328403465237
1063.2751342742354
1063.4974657962603
1063.6997995253655
1063.8821000743171
1064.0443320558836
1064.186460082831
1064.3084487679266
1064.410262723938
1064.4918665636312
1064.5532248997742
1064.594302345134
1064.6150635124773
1064.6154730145709
1064.5954954641827
1064.5550954740795
1064.4942376570275
1064.4128866257952
1064.3110069931486
1064.188563371855
1064.0455203746817
1063.8818426143957
1063.6974947037638
1063.492441255553
1063.2666468825314
1063.0200761974647
1062.7526938131205
1062.4644643422662
1062.1553523976686
1061.8253225920944
1061.4743395383114
1061.1023678490856
1060.7093721371855
1060.2953170153773
1059.8601670964279
1059.4038869931048
1058.926441318175
1058.4277946844052
1057.907911704563
1057.3667569914148
1056.8042951577288
1056.2204908162707
1055.6153085798082
1054.988713061109
1054.3406688729392
1053.6711406280658
1052.980092939257
1052.2674904192788
1051.5332976808982
1050.7774793368828
1049.9999999999998
1049.2009150859415
1048.3806432221008
1047.5396938387978
1046.6785763663515
1045.7978002350799
1044.8978748753032
1043.9793097173394
1043.0426141915088
1042.0882977281296
1041.1168697575208
1040.128839710002
1039.124717015892
1038.1050111055094
1037.0702314091739
1036.020887357204
1034.9574883799194
1033.8805439076386
1032.790563370681
1031.6880561993648
1030.5735318240106
1029.447499674936
1028.3104691824608
1027.1629497769036
1026.005450888584
1024.8384819478206
1023.662552384933
1022.4781716302393
1021.2858491140595
1020.0860942667118
1018.8794165185162
1017.6663252997909
1016.4473300408556
1015.222940172029
1013.9936651236303
1012.7600143259783
1011.5224972093919
1010.2816232041907
1009.0379017406937
1007.7918422492196
1006.5439541600873
1005.2947469036167
1004.0447299101256
1002.7944126099342
1001.5443044333609
1000.294914810725
999.0467531723455
997.8003289485415
996.556151569632
995.3147304659358
994.0765750677722
992.8421948054604
991.6120991093193
990.3867974096676
989.1667991368248
987.95261372111
986.7447505928418
985.5437191823397
984.3500289199225
983.1641892359095
981.9867095606194
980.8180993243712
979.6588679574845
978.5095248902777
977.3705795530706
976.2425413761813
975.1259197899295
974.0212242246341
972.9289641106146
971.8496488781891
970.7837879576773
969.731890779398
968.6944667736706
967.6720253708133
966.6650760011463
965.6741280949877
964.6996910826574
963.7422743944737
962.802387460756
961.8805397118233
960.9772405779945
960.0929994895887
959.2283258769252
958.3837291703228
957.5597188001008
956.756804196578
955.9754947900738
955.2163000109063
954.4797292893958
953.7662920558604
953.0764977406195
952.4108557739925
951.7698755862979
951.1540666078549
950.5639382689827
950.0000000000003
949.4626191397808
948.9515946614137
948.4665834465428
948.0072423768113
947.5732283338631
947.1641981993422
946.7798088548918
946.4197171821551
946.0835800627767
945.7710543783998
945.4817970106678
945.2154648412244
944.9717147517135
944.7502036237785
944.5505883390631
944.3725257792111
944.2156728258656
944.0796863606706
943.9642232652699
943.8689404213069
943.7934947104253
943.7375430142686
943.7007422144801
943.6827491927041
943.6832208305843
943.7018140097636
943.738185611886
943.7919925185955
943.8628916115348
943.9505397723487
944.0545938826799
944.1747108241723
944.3105474784695
944.4617607272154
944.6280074520533
944.8089445346272
945.0042288565804
945.2135172995562
945.4364667451989
945.6727340751521
945.9219761710588
946.1838499145634
946.4580121873088
946.7441198709391
947.0418298470976
947.3507989974286
947.6706842035748
948.0011423471805
948.3418303098889
948.6924049733442
949.0525232191893
949.4218419290683
949.8000179846247
950.1867082675022
950.5815696593442
950.9842590417948
951.394433296497
951.8117493050947
952.2358639492318
952.6664341105518
953.1031166706978
953.5455685113143
953.9934465140442
954.4464075605316
954.9041085324196
955.3662063113527
955.8323577789737
956.3022198169264
956.7754493068549
957.251703130402
957.7306381692118
958.2119113049283
958.6951794191945
959.1800993936544
959.6663281099512
960.1535224497293
960.6413392946316
961.1294355263021
961.6174680263842
962.1050936765216
962.5919693583583
963.0777519535371
963.5620983437025
964.0446654104977
964.5251100355663
965.0030891005516
965.4782594870983
965.950278076849
966.4188017514479
966.883487392538
967.3439918817637
967.7999721007682
968.251084931195
968.6969872546882
969.1373359528909
969.5717879074471
970.0000000000002
970.4216967975094
970.8368736081952
971.2455934255937
971.6479192432407
972.0439140546723
972.4336408534244
972.8171626330331
973.1945423870345
973.5658431089645
973.931127792359
974.2904594307539
974.6439010176856
974.9915155466892
975.3333660113021
975.6695154050591
976.0000267214967
976.3249629541507
976.6443870965575
976.9583621422523
977.2669510847718
977.5702169176521
977.8682226344283
978.1610312286374
978.4487056938146
978.7313090234965
979.0089042112188
979.2815542505172
979.5493221349284
979.8122708579879
980.0704634132317
980.3239627941958
980.5728319944163
980.8171340074297
981.0569318267709
981.2922884459766
981.5232668585827
981.749930058125
981.9723410381399
982.1905627921628
982.4046583137302
982.6146905963777
982.8207226336416
983.022817419058
983.2210379461627
983.4154472084915
983.6061081995805
983.7930839129659
983.9764373421835
984.1562314807693
984.3325293222593
984.5053938601899
984.6748880880963
984.8410749995151
985.0040175879822
985.1637788470331
985.3204217702043
985.474009351032
985.6246045830516
985.7722704597998
985.9170699748116
986.059066121624
986.1983218937722
986.3349002847928
986.4688642882211
986.600276897594
986.7292011064468
986.8556999083156
986.9798362967366
987.1016732652458
987.221273807379
987.3387009166722
987.4540175866615
987.5672868108832
987.6785715828723
987.7879348961659
987.8954397442992
988.0011491208086
988.1051260192303
988.2074334330997
988.3081343559535
988.4072917813268
988.5049687027563
988.601228113778
988.6961330079273
988.7897463787409
988.8821312197542
988.9733505245035
989.0634672865248
989.1525444993541
989.2406451565271
989.32783225158
989.4141687780489
989.4997177294698
989.5845420993786
989.6687048813114
989.7522690688036
989.8352976553919
989.9178536346122
990.0000000000002
990.0817826341043
990.1631789755203
990.2441493518572
990.3246540907235
990.4046535197268
990.484107966476
990.5629777585797
990.6412232236461
990.7188046892838
990.7956824831011
990.8718169327062
990.9471683657076
991.0216971097137
991.0953634923334
991.1681278411744
991.2399504838457
991.3107917479551
991.3806119611115
991.4493714509235
991.5170305449989
991.5835495709463
991.6488888563744
991.7130087288913
991.7758695161058
991.8374315456256
991.89765514506
991.9565006420169
992.0139283641046
992.0698986389318
992.1243717941067
992.1773081572381
992.2286680559339
992.2784118178026
992.3264997704532
992.3728922414934
992.4175495585321
992.4604320491773
992.501500041038
992.5407138617218
992.5780338388375
992.613420299994
992.6468335727989
992.6782339848611
992.707581863789
992.7348375371909
992.7599613326751
992.7829135778501
992.8036546003245
992.8221447277065
992.8383442876044
992.8522136076269
992.8637130153827
992.8728028384792
992.8794434045258
992.8835950411302
992.8852180759014
992.8842728364476
992.8807196503772
992.8745188452987
992.86563074882
992.8540156885502
992.8396339920976
992.8224459870698
992.8024120010765
992.7794923617254
992.7536473966246
992.7248374333832
992.6930227996091
992.6581638229112
992.6202208308974
992.5791541511763
992.5349241113565
992.4874910390464
992.4368152618539
992.3828571073881
992.3255769032571
992.2649349770693
992.2008916564332
992.1334072689567
992.0624421422493
991.9879566039184
991.9099109815731
991.828265602821
991.7429807952714
991.6540168865322
991.5613342042118
991.464893075919
991.3646538292619
991.260576791849
991.1526222912885
991.0407506551893
990.9249222111592
990.8050972868073
990.6812362097414
990.5532993075702
990.421246907902
990.2850393383451
990.1446369265087
989.9999999999999
989.8511415461696
989.6982851913326
989.5417072215456
989.3816839228655
989.2184915813493
989.0524064830526
988.883704914033
988.7126631603467
988.5395575080505
988.3646642432014
988.1882596518559
988.0106200200705
987.8320216339023
987.6527407794075
987.473053742643
987.2932368096652
987.1135662665313
986.9343183992978
986.7557694940215
986.5781958367586
986.4018737135661
986.2270794105008
986.0540892136189
985.8831794089779
985.7146262826336
985.5487061206433
985.3856952090634
985.225869833951
985.0695062813621
984.9168808373538
984.7682697879828
984.6239494193056
984.4841960173792
984.3492858682599
984.2194952580045
984.0951004726699
983.9763777983127
983.8636035209894
983.7570539267565
983.6570053016712
983.56373393179
983.4775161031695
983.3986281018665
983.3273462139376
983.2639467254392
983.2087059224285
983.1619000909619
983.123805517096
983.094698486888
983.0748552863938
983.0645522016707
983.064065518775
983.0736715237639
983.0936465026936
983.1242667416207
983.1658085266022
983.2185481436948
983.2827618789548
983.3587260184395
983.4467168482049
983.5470106543081
983.659883722806
983.7856123397546
983.9244727912113
984.0767413632321
984.2426943418744
984.4226080131941
984.6167586632486
984.8254225780943
985.0488760437878
985.2873953463857
985.5412567719451
985.8107366065221
986.096111136174
986.397656646957
986.7156494249281
987.0503657561438
987.4020819266607
987.7710742225358
988.1576189298257
988.5619923345869
988.984470722876
989.4253303807501
989.8848475942652
990.3632986494787
990.8609598324472
991.3781074292269
991.9150177258748
992.4719670084477
993.0492315630021
993.6470876755943
994.2658116322818
994.9056797191209
995.5669682221683
996.2499534274802
996.9549116211144
997.6821190891264
998.4318521175736
999.2043869925125
999.9999999999999
1000.8188236390538
1001.660415260539
1002.5241884282825
1003.4095567061102
1004.3159336578491
1005.2427328473252
1006.1893678383651
1007.1552521947953
1008.1397994804424
1009.1424232591322
1010.1625370946923
1011.1995545509483
1012.2528891917268
1013.3219545808547
1014.406164282158
1015.5049318594627
1016.6176708765964
1017.7437948973851
1018.8827174856551
1020.0338522052328
1021.196612619945
1022.3704122936177
1023.5546647900777
1024.7487836731514
1025.9521825066652
1027.1642748544457
1028.3844742803192
1029.6121943481126
1030.8468486216516
1032.087850664763
1033.3346140412737
1034.5865523150098
1035.8430790497973
1037.1036078094635
1038.3675521578343
1039.634325658736
1040.9033418759961
1042.17401437344
1043.4457567148947
1044.7179824641867
1045.9901051851414
1047.261538441587
1048.5316957973484
1049.7999908162533
1051.0658370621272
1052.328648098797
1053.5878374900894
1054.8428187998302
1056.0930055918468
1057.3378114299649
1058.576649878011
1059.8089344998116
1061.0340788591939
1062.251496519983
1063.4606010460066
1064.6608060010908
1065.8515249490615
1067.0321714537458
1068.20215907897
1069.360901388561
1070.5078119463444
1071.642304316147
1072.7637920617954
1073.8716887471157
1074.9654079359352
1076.0443631920796
1077.1079680793753
1078.1556361616492
1079.186781002728
1080.2008161664376
1081.1971552166044
1082.1752117170554
1083.1343992316165
1084.0741313241144
1084.9938215583757
1085.8928834982264
1086.7707307074934
1087.6267767500037
1088.460435189582
1089.2711195900572
1090.0582435152537
1090.821220528999
1091.559464195119
1092.2723880774404
1092.95940573979
1093.619930745994
1094.2533766598785
1094.8591570452706
1095.4366854659966
1095.9853754858823
1096.5046406687547
1096.9938945784409
1097.4525507787662
1097.8800228335574
1098.2757243066417
1098.6390687618443
1098.9694697629927
1099.2663408739134
1099.529095658432
1099.7571476803755
1099.9499105035704
1100.1067976918432
1100.22722280902
1100.3105994189277
1100.3563410853924
1100.3638613722408
1100.332573843299
1100.2618920623943
1100.1512295933524
1099.9999999999998
1099.8078265841752
1099.575171599766
1099.3027070386702
1098.991104892788
1098.6410371540173
1098.2531758142582
1097.8281928654092
1097.3667602993692
1096.8695501080379
1096.3372342833138
1095.7704848170956
1095.1699737012832
1094.536372927775
1093.8703544884704
1093.172590375268
1092.4437525800672
1091.6845130947675
1090.895543911267
1090.0775170214652
1089.231104417261
1088.3569780905536
1087.455810033242
1086.528272237225
1085.5750366944023
1084.5967753966725
1083.5941603359347
1082.5678635040877
1081.5185568930303
1080.4469124946622
1079.3536023008826
1078.2392983035897
1077.1046724946832
1075.9503968660624
1074.777143409625
1073.5855841172715
1072.3763909809
1071.1502359924098
1069.9077911437005
1068.6497284266702
1067.3767198332187
1066.0894373552449
1064.7885529846471
1063.4747387133252
1062.1486665331781
1060.8110084361049
1059.462436414004
1058.1036224587751
1056.7352385623174
1055.357956716529
1053.9724489133098
1052.5793871445583
1051.179443402174
1049.7732896780558
1048.3615979641027
1046.9450402522136
1045.5242885342873
1044.1000148022238
1042.6728910479212
1041.243589263279
1039.812781440196
1038.3811395705718
1036.9493356463045
1035.5180416592934
1034.0879296014384
1032.6596714646378
1031.2339392407905
1029.8114049217959
1028.3927404995527
1026.9786179659607
1025.5697093129181
1024.1666865323245
1022.7702216160785
1021.3809865560795
1019.9996533442262
1018.6268939724176
1017.2633804325535
1015.9097847165322
1014.5667788162527
1013.2350347236147
1011.9152244305168
1010.6080199288576
1009.3140932105371
1008.0341162674533
1006.7687610915063
1005.5186996745944
1004.2846040086168
1003.0671460854729
1001.8669978970613
1000.6848314352812
999.5213186920314
998.3771316592114
997.25294232872
996.1494226924563
995.0672447423192
994.0070804702077
992.9696018680211
991.9554809276584
990.9653896410185
990.0000000000002
989.0598311259006
988.1447906576055
987.2546333633987
986.3891140115641
985.5479873703846
984.7310082081447
983.9379312931277
983.1685113936173
982.422503277897
981.6996617142507
980.9997414709619
980.3224973163146
979.6676840185922
979.0350563460782
978.4243690670568
977.8353769498109
977.2678347626252
976.721497273782
976.196119251566
975.6914554642606
975.2072606801498
974.7432896675166
974.2992971946449
973.8750380298187
973.4702669413215
973.0847386974364
972.7182080664479
972.3704298166394
972.0411587162945
971.7301495336964
971.4371570371299
971.1619359948777
970.9042411752235
970.6638273464515
970.4404492768449
970.2338617346876
970.0438194882636
969.8700773058557
969.712389955748
969.5705122062247
969.4441988255686
969.3332045820639
969.2372842439942
969.1561925796427
969.0896843572939
969.0375143452308
968.9994373117373
968.9752080250973
968.9645812535938
968.9673117655111
968.9831543291325
969.0118637127421
969.0531946846228
969.1069020130592
969.1727404663343
969.250464812732
969.339829820536
969.4405902580299
969.5525008934973
969.6753164952221
969.8087918314877
969.9526816705777
970.1067407807761
970.2707239303666
970.4443858876324
970.6274814208576
970.8197652983257
971.0209922883201
971.2309171591252
971.4492946790238
971.6758796163001
971.9104267392378
972.1526908161206
972.4024266152312
972.6593889048547
972.923332453274
973.1940120287727
973.4711823996345
973.7545983341433
974.0440146005828
974.3391859672367
974.6398672023882
974.9458130743214
975.2567783513199
975.5725178016672
975.892786193647
976.217338295543
976.545928875639
976.8783127022188
977.2142445435654
977.5534791679631
977.8957713436953
978.2408758390458
978.5885474222981
978.9385408617361
979.2906109256431
979.6445123823033
979.9999999999998
980.3568366095773
980.7148172921203
981.0737451912752
981.4334234506877
981.7936552140034
982.154243624868
982.5149918269278
982.8757029638276
983.2361801792141
983.5962266167326
983.9556454200289
984.3142397327488
984.6718126985379
985.028167461042
985.3831071639073
985.736434950779
986.0879539653033
986.4374673511257
986.7847782518919
987.1296898112481
987.4720051728394
987.811527480312
988.1480598773114
988.4814055074838
988.8113675144742
989.1377490419294
989.4603532334942
989.7789832328149
990.093442183537
990.4035332293066
990.709059513769
991.0098241805704
991.3056303733564
991.5962812357724
991.8815799114647
992.1613295440789
992.4353332772607
992.7033942546557
992.9653156199097
993.2209005166687
993.4699520885786
993.7122734792847
993.9476678324327
994.175938291669
994.3968880006388
994.610320102988
994.8160377423626
995.0138440624081
995.2035422067702
995.3849353190949
995.5578265430278
995.7220190222146
995.8773159003014
996.0235203209336
996.1604354277567
996.2878643644171
996.4056102745606
996.5134763018325
996.6112655898789
996.6987812823452
996.7758265228771
996.8422044551209
996.897718222722
996.9421709693263
996.9753658385791
996.9971059741273
997.007194519615
997.0054346186895
996.9916294149958
996.9655820521797
996.927095673887
996.8759734237635
996.8120184454552
996.7350338826074
996.644822878866
996.5411885778772
996.4239341232861
996.2928626587391
996.1477773278814
995.9884812743591
995.8147776418177
995.6264695739035
995.4233602142612
995.2052527065379
994.9719501943781
994.7232558214283
994.4589727313346
994.1789040677417
993.8828529742962
993.5706225946437
993.2420160724295
992.8968365512999
992.5348871749004
992.1559710868769
991.7598914308752
991.346451350541
990.9154539895197
990.4667024914576
990.0000000000002
989.5152474108995
989.0127366283324
988.4928573085825
987.9559991079325
987.4025516826661
986.8329046890661
986.2474477834164
985.6465706219993
985.0306628610986
984.4001141569973
983.755314165979
983.0966525443266
982.4245189483231
981.7393030342522
981.0413944583969
980.3311828770405
979.6090579464658
978.8754093229569
978.1306266627962
977.375099622267
976.6092178576533
975.8333710252374
975.047948781303
974.2533407821335
973.4499366840115
972.6381261432207
971.8182988160439
970.9908443587648
970.1561524276665
969.314612679032
968.4666147691449
967.6125483542882
966.7528030907448
965.8877686347986
965.0178346427323
964.1433907708295
963.264826675373
962.3825320126464
961.4968964389327
960.6083096105149
959.717161183677
958.8238408147012
957.9287381598716
957.0322428754712
956.1347446177825
955.23663304309
954.3382978076759
953.4401285678235
952.542514979817
951.6458466999384
950.7505133844717
949.8569046896995
948.9654102719055
948.0764197873731
947.190322892385
946.3075092432247
945.4283684961752
944.5532903075202
943.6826643335423
942.8168802305253
941.9563276547519
941.101396262506
940.2524757100701
939.4099556537276
938.5742257497623
937.7456756544565
936.9246950240941
936.1116735149578
935.3070007833319
934.5110664854981
933.724260277741
932.9469718163426
932.1795907575872
931.4225067577576
930.6761094731366
929.9407885600081
929.2169336746549
928.5049344733603
927.8051806124078
927.1180617480802
926.4439675366609
925.7832876344333
925.1364116976804
924.5037293826854
923.8856303457317
923.2825042431022
922.6947407310806
922.1227294659498
921.566860103993
921.027522301494
920.5051057147349
920.0
919.5125045237322
919.0425574930166
918.590006825098
918.1547004372214
917.736486246632
917.3352121705751
916.9507261262953
916.5828760310383
916.2315098020481
915.8964753565705
915.5776206118504
915.2747934851327
914.9878418936629
914.7166137546856
914.460956985446
914.2207195031892
913.9957492251604
913.7858940686042
913.5910019507659
913.4109207888906
913.2454985002233
913.0945830020092
912.9580222114929
912.8356640459201
912.7273564225354
912.6329472585838
912.5522844713108
912.4852159779609
912.4315896957795
912.3912535420118
912.3640554339024
912.3498432886965
912.348465023639
912.3597685559755
912.3836018029508
912.4198126818097
912.4682491097973
912.528759004159
912.6011902821396
912.6853908609842
912.7812086579378
912.8884915902452
913.0070875751522
913.136844529903
913.2776103717431
913.4292330179178
913.5915603856713
913.7644403922494
913.947720954897
914.1412499908594
914.3448754173809
914.558445151707
914.7818071110829
915.0148092127533
915.2572993739634
915.5091255119584
915.7701355439834
916.040177387283
916.3190989591027
916.6067481766877
916.9029729572823
917.2076212181321
917.5205408764821
917.8415798495771
918.1705860546626
918.5074074089833
918.8518918297843
919.2038872343105
919.5632415398076
919.92980266352
920.3034185226927
920.6839370345715
921.0712061164007
921.4650736854256
921.8653876588911
922.2719959540425
922.6847464881248
923.1034871783831
923.5280659420625
923.9583306964076
924.3941293586637
924.8353098460763
925.2817200758896
925.7332079653492
926.1896214317003
926.6508083921876
927.1166167640564
927.5868944645515
928.0614894109178
928.5402495204008
929.0230227102459
929.5096568976968
929.9999999999998
930.4939189403918
930.9913566660805
931.4922751302653
931.9966362861461
932.5044020869227
933.0155344857945
933.5299954359618
934.0477468906238
934.5687508029808
935.0929691262326
935.6203638135781
936.1508968182177
936.6845300933512
937.2212255921783
937.7609452678984
938.3036510737116
938.8493049628174
939.397868888416
939.9493048037068
940.5035746618895
941.060640416164
941.6204640197301
942.1830074257873
942.7482325875357
943.3161014581751
943.8865759909048
944.4596181389247
945.0351898554347
945.6132530936345
946.1937698067237
946.7767019479026
947.36201147037
947.9496603273267
948.5396104719719
949.1318238575054
949.7262624371268
950.3228881640358
950.9216629914326
951.5225488725168
952.125507760488
952.7305016085461
953.3374923698906
953.9464419977214
954.5573124452387
955.1700656656416
955.7846636121297
956.4010682379037
957.0192414961624
957.6391453401064
958.2607417229345
958.8839925978472
959.508859918044
960.1353056367245
960.7632917070887
961.3927800823363
962.023732715667
962.6561115602807
963.2898785693767
963.9249956961552
964.5614248938159
965.1991281155586
965.8380673145826
966.4782044440883
967.1195014572751
967.7619203073423
968.4054229474906
969.0499713309194
969.6955274108279
970.3420531404164
970.989510472885
971.6378613614326
972.2870677592595
972.9370916195652
973.5878948955494
974.2394395404124
974.8916875073536
975.5446007495723
976.1981412202689
976.852270872643
977.5069516598941
978.1621455352221
978.8178144518271
979.473920362908
980.1304252216655
980.7872909812988
981.4444795950077
982.1019530159923
982.7596731974518
983.4176020925863
984.0757016545958
984.7339338366794
985.3922605920375
986.0506438738691
986.709045635375
987.3674278297542
988.0257524102061
988.6839813299315
989.3420765421295
990.0000000000001
990.6576759619835
991.3148779074843
991.971341621147
992.6268028876168
993.2809974915389
993.9336612175574
994.584529850318
995.233339174465
995.8798249746442
996.5237230354996
997.1647691416766
997.8026990778203
998.4372486285752
999.0681535785866
999.6951497124994
1000.317972814958
1000.9363586706081
1001.550043064094
1002.1587617800611
1002.7622506031544
1003.360245318018
1003.9524817092978
1004.5386955616382
1005.1186226596844
1005.691998788081
1006.2585597314735
1006.8180412745061
1007.3701792018244
1007.9147092980727
1008.4513673478963
1008.9798891359405
1009.5000104468497
1010.0114670652691
1010.513994775843
1011.0073293632173
1011.4912066120363
1011.9653623069449
1012.4295322325885
1012.8834521736114
1013.3268579146593
1013.7594852403766
1014.1810699354083
1014.5913477843995
1014.990054571995
1015.3769260828398
1015.7516981015784
1016.1141064128565
1016.4638868013187
1016.8007750516097
1017.1245069483748
1017.4348182762585
1017.7314448199062
1018.0141223639625
1018.2825866930727
1018.5365735918814
1018.7758188450335
1019.0000582371741
1019.2090275529478
1019.4024625770002
1019.5800990939756
1019.7416728885194
1019.886919745276
1020.0155754488911
1020.127375784009
1020.2220565352746
1020.2993534873331
1020.3590024248297
1020.4007391324088
1020.4242993947153
1020.4294189963945
1020.4158337220914
1020.3832793564504
1020.331491684117
1020.2602064897359
1020.1691595579523
1020.0580866734103
1019.9267236207556
1019.7748061846332
1019.6020701496877
1019.408251300564
1019.1930854219071
1018.9563082983622
1018.6976557145737
1018.4168634551867
1018.1136673048466
1017.7878030481979
1017.4390064698855
1017.0670133545545
1016.67155948685
1016.2523806514165
1015.8092126328993
1015.3417912159431
1014.849852185193
1014.333131325294
1013.7913644208904
1013.2242872566277
1012.6316356171512
1012.0131452871051
1011.3685520511347
1010.6975916938848
1010.0000000000005
1009.275671384768
1008.52513478604
1007.7490777723115
1006.9481879120763
1006.1231527738281
1005.2746599260618
1004.4033969372721
1003.5100513759525
1002.5953108105979
1001.659862809702
1000.7043949417596
999.7295947752647
998.7361498787119
997.7247478205949
996.6960761694088
995.6508224936468
994.5896743618041
993.5133193423751
992.4224450038532
991.3177389147334
990.1998886435098
989.0695817586763
987.9275058287282
986.7743484221588
985.6107971074628
984.4375394531341
983.2552630276678
982.0646553995574
980.8664041372975
979.6611968093824
978.4497209843063
977.2326642305637
976.0107141166487
974.7845582110555
973.5548840822786
972.322379298812
971.0877314291506
969.8516280417878
968.614756705219
967.3778049879371
966.1414604584378
964.9064106852143
963.6733432367614
962.4429456815734
961.2159055881444
959.9929105249688
958.7746480605407
957.5618057633549
956.355071201905
955.1551319446858
953.9626755601914
952.7783896169162
951.6029616833542
950.437079328
949.2814301193479
948.136701625892
947.0035814161265
945.882757058546
944.7749161216443
943.6807461739163
942.600934783856
941.5361695199576
940.4871379507156
939.4545276446241
938.4390261701774
937.4413210958696
936.4620999901961
935.5020504216493
934.5618599587251
933.6422161699169
932.7438066237195
931.8673188886266
931.0134405331332
930.1828591257332
929.3762622349211
928.5943374291908
927.8377722770368
927.1072543469534
926.4034712074347
925.7271104269755
925.0788595740697
924.4594062172116
923.8694379248954
923.3096422656158
922.7807068078666
922.2833191201426
921.8181667709374
921.3859373287456
920.987318362062
920.6229974393802
920.2936621291949
920.0000000000001
919.7424909564578
919.5207842478995
919.3343214598248
919.1825441777322
919.0648939871215
918.980812473492
918.9297412223426
918.9111218191724
918.9243958494809
918.9690048987675
919.0443905525306
919.1499943962702
919.285258015485
919.4496229956745
919.6425309223379
919.8634233809745
920.1117419570834
920.386928236163
920.6884238037138
921.0156702452344
921.3681091462244
921.7451820921824
922.146330668608
922.5709964610005
923.0186210548587
923.4886460356819
923.9805129889694
924.4936635002207
925.0275391549346
925.5815815386107
926.1552322367478
926.7479328348453
927.3591249184026
927.988250072918
928.6347498838918
929.298065936823
929.9776398172105
930.6729131105537
931.3833274023517
932.1083242781039
932.8473453233088
933.5998321234667
934.3652262640759
935.1429693306362
935.9325029086465
936.7332685836061
937.5447079410144
938.3662625663702
939.1973740451731
940.0374839629219
940.8860339051162
941.742465457255
942.6062202048373
943.4767397333629
944.3534656283307
945.2358394752395
946.1233028595892
947.0152973668788
947.9112645826073
948.8106460922737
949.712883481378
950.6174183354186
951.5236922398952
952.4311467803066
953.3392235421525
954.2473641109317
955.1550100721439
956.0616030112876
956.9665845138625
957.8693961653677
958.7694795513024
959.6662762571658
960.5592278684574
961.4477759706758
962.3313621493205
963.209427989891
964.0814150778859
964.9467649988052
965.8049193381473
966.655319681412
967.4974076140983
968.330624721705
969.1544125897325
969.9682128036786
970.7714669490432
971.5636166113255
972.3441033760245
973.1123688286398
973.8678545546703
974.6100021396152
975.3382531689736
976.0520492282451
976.7508319029286
977.4340427785233
978.1011234405288
978.7515154744439
979.3846604657674
979.9999999999999
980.5970880009672
981.1759277458086
981.7366348499911
982.2793249289815
982.8041135982465
983.3111164732527
983.8004491694674
984.272227302357
984.7265664873886
985.1635823400292
985.5833904757449
985.9861065100031
986.3718460582706
986.7407247360142
987.0928581587004
987.4283619417964
987.7473517007686
988.0499430510844
988.3362516082103
988.6063929876129
988.8604828047596
989.0986366751165
989.3209702141509
989.5275990373299
989.7186387601196
989.894204997987
990.0544133663993
990.1993794808234
990.3292189567253
990.4440474095727
990.5439804548319
990.62913370797
990.6996227844538
990.7555632997496
990.797070869325
990.8242611086462
990.8372496331806
990.8361520583945
990.8210839997552
990.792161072729
990.749498892783
990.6932130753843
990.6234192359991
990.5402329900945
990.4437699531376
990.3341457405947
990.2114759679331
990.0758762506194
989.9274622041204
989.7663494439029
989.592653585434
989.4064902441802
989.2079750356083
988.9972235751853
988.7743514783783
988.5394743606535
988.2927078374779
988.0341675243187
987.7639690366423
987.4822279899157
987.1890599996055
986.8845806811792
986.5689056501026
986.2421505218434
985.9044309118681
985.5558624356433
985.1965607086362
984.8266413463131
984.4462199641414
984.055412177588
983.6543336021189
983.2430998532017
982.8218265463028
982.3906292968892
981.949623720428
981.4989254323854
981.0386500482284
980.5689131834245
980.0898304534394
979.6015174737405
979.104089859795
978.5976632270691
978.0823531910298
977.5582753671443
977.0255453708787
976.4842788177004
975.9345913230761
975.3765985024723
974.8104159713564
974.2361593451949
973.6539442394545
973.0638862696022
972.4661010511048
971.860704199429
971.2478113300416
970.6275380584099
969.9999999999998
969.365342711282
968.7238315127364
968.0757616658468
967.421428432097
966.7611270729699
966.0951528499494
965.4238010245191
964.7473668581623
964.0661456123627
963.3804325486037
962.6905229283689
961.9967120131415
961.2992950644052
960.5985673436439
959.8948241123408
959.1883606319795
958.4794721640432
957.7684539700158
957.0556013113805
956.341209449621
955.625573646221
954.9089891626637
954.1917512604326
953.474155201012
952.7564962458841
952.0390696565331
951.3221706944429
950.6060946210962
949.8911366979773
949.1775921865693
948.4657563483555
947.7559244448199
947.0483917374457
946.3434534877167
945.641404957116
944.9425414071276
944.2471580992346
943.5555502949206
942.8680132556693
942.1848422429641
941.5063325182891
940.8327793431264
940.1644779789607
939.5017236872756
938.8448117295536
938.1940373672791
937.5496958619351
936.9120824750058
936.2814924679739
935.6582211023232
935.0425636395379
934.4348153411001
933.8352714684947
933.2442272832046
932.6619780467132
932.0888190205044
931.5250454660613
930.9709526448676
930.426835818407
929.892990248163
929.3697111956186
928.8572939222578
928.3560336895642
927.8662257590208
927.3881653921118
926.9221478503199
926.4684683951297
926.0274222880234
925.5993047904856
925.1844111639994
924.7830366700483
924.3954765701159
924.0220261256858
923.662980598241
923.3186352492656
922.989285340243
922.6752261326565
922.3767528879897
922.0941608677264
921.8277453333499
921.5778015463436
921.3446247681911
921.128510260376
920.9297532843816
920.7486491016917
920.5854929737895
920.440580162159
920.3142059282834
920.2066655336461
920.1182542397306
920.0492673080211
920.0
919.970654159344
919.9610579584964
919.9709461520947
920.0000534947744
920.0481147411723
920.1148646459251
920.2000379636686
920.3033694490396
920.4245938566744
920.5634459412098
920.7196604572813
920.8929721595262
921.0831158025806
921.2898261410809
921.5128379296635
921.7518859229649
922.0067048756215
922.2770295422695
922.5625946775458
922.8631350360863
923.1783853725278
923.5080804415068
923.8519549976587
924.2097437956214
924.5811815900304
924.9660031355222
925.3639431867336
925.7747364983005
926.1981178248598
926.6338219210477
927.0815835415005
927.5411374408546
928.0122183737466
928.4945610948132
928.98790035869
929.4919709200143
930.0065075334218
930.5312449535493
931.0659179350333
931.61026123251
932.1640096006158
932.7268977939874
933.2986605672609
933.8790326750728
934.4677488720594
935.0645439128575
935.6691525521031
936.2813095444333
936.9007496444834
937.5272076068907
938.1604181862914
938.8001161373217
939.4460362146181
940.0979131728175
940.7554817665557
941.4184767504692
942.0866328791947
942.7596849073686
943.4373675896268
944.1194156806065
944.8055639349437
945.4955471072745
946.1890999522359
946.8859572244642
947.5858536785954
948.2885240692664
948.9937031511132
949.7011256787725
950.4105264068809
951.1216400900744
951.8342014829894
952.5479453402629
953.2626064165307
953.9779194664294
954.6936192445957
955.4094405056657
956.1251180042757
956.8403864950623
957.5549807326621
958.2686354717111
958.9810854668465
959.6920654727038
960.4013102439195
961.1085545351309
961.8135331009736
962.515980696084
963.2156320750989
963.9122219926548
964.6054852033876
965.2951564619343
965.9809705229309
966.6626621410137
967.3399660708196
968.012617066985
968.6803498841457
969.3428992769385
970.0
970.6514137286204
971.2970098207046
971.9366845548117
972.5703342095007
973.1978550633307
973.8191433948612
974.4340954826505
975.0426076052576
975.644576041242
976.2398970691623
976.8284669675777
977.4101820150474
977.98493849013
978.552632671385
979.113160837371
979.6664192666474
980.2123042377729
980.7507120293062
981.2815389198073
981.804681187834
982.3200351119464
982.827496970703
983.3269630426628
983.8183296063849
984.3014929404283
984.776349323352
985.242795033715
985.7007263500766
986.1500395509948
986.5906309150304
987.0223967207407
987.4452332466857
987.8590367714241
988.2637035735149
988.6591299315172
989.0452121239897
989.4218464294919
989.7889291265826
990.1463564938209
990.4940248097658
990.8318303529761
991.1596694020108
991.4774382354291
991.7850331317901
992.0823503696527
992.369286227576
992.6457369841189
992.9115989178404
993.1667683072994
993.4111414310553
993.6446145676667
993.867083995693
994.0784459936926
994.2785968402255
994.4674328138499
994.6448501931252
994.8107452566098
994.9650142828639
995.1075535504453
995.2382593379135
995.357027923828
995.4637555867471
995.5583386052298
995.6406732578357
995.7106558231235
995.768182579652
995.8131498059804
995.8454537806682
995.8649907822733
995.8716570893558
995.8653489804744
995.8459627341877
995.8133946290552
995.7675409436355
995.7082979564879
995.6355619461714
995.5492291912452
995.4491959702679
995.3353585617988
995.2076132443967
995.0658562966208
994.9099839970299
994.7398926241833
994.5554784566398
994.3566377729585
994.1432668516986
993.915261971419
993.6725194106781
993.414935448036
993.1424063620508
992.8548284312819
992.5520979342888
992.2341111496296
991.9007643558637
991.5519538315502
991.1875758552482
990.8075267055162
990.4117026609139
989.9999999999998
989.5723921441725
989.1291610861856
988.6706659616335
988.1972659061097
987.709320055207
987.2071875445196
986.6912275096404
986.1617990861633
985.6192614096817
985.0639736157895
984.4962948400796
983.9165842181457
983.3252008855817
982.7225039779809
982.1088526309366
981.4846059800423
980.8501231608919
980.2057633090789
979.5518855601962
978.8888490498382
978.2170129135977
977.5367362870685
976.8483783058443
976.1522981055182
975.448854821684
974.7384075899357
974.0213155458655
973.2979378250682
972.5686335631366
971.8337618956643
971.093681958245
970.3487528864727
969.5993338159398
968.8457838822405
968.0884622209683
967.3277279677167
966.5639402580791
965.7974582276491
965.0286410120203
964.257847746786
963.4854375675395
962.7117696098751
961.9372030093857
961.1620969016652
960.3868104223067
959.6117027069039
958.8371328910504
958.0634601103395
957.291043500365
956.5202421967205
955.751415334999
954.9849220507946
954.2211214797003
953.4603727573099
952.703035019217
951.9494674010148
951.2000290382973
950.4550790666574
949.7149766216894
948.9800808389859
948.2507508541411
947.5273458027484
946.810224820401
946.0997470426928
945.3962716052172
944.7001576435675
944.0117642933376
943.3314506901207
942.6595759695105
941.9964992671003
941.3425797184838
940.6981764592547
940.0636486250062
939.4393553513319
938.8256557738251
938.2229090280798
937.6314742496893
937.051710574247
936.4839771373464
935.9286330745814
935.3860375215453
934.8565496138312
934.3405284870331
933.8383332767444
933.3503231185588
932.8768571480693
932.4182945008702
931.9749943125544
931.5473157187153
931.1356178549471
930.740259856843
930.361600859996
930.0000000000001
929.6557158959523
929.328605100963
929.0184236516465
928.7249275846164
928.4478729364869
928.1870157438719
927.9421120433851
927.7129178716414
927.4991892652538
927.3006822608367
927.1171528950043
926.94835720437
926.7940512255484
926.6539909951531
926.527932549798
926.4156319260976
926.3168451606657
926.2313282901159
926.1588373510625
926.0991283801199
926.0519574139013
926.0170804890209
925.9942536420932
925.9832329097314
925.9837743285502
925.9956339351631
926.0185677661844
926.052331858228
926.0966822479079
926.1513749718379
926.2161660666322
926.2908115689048
926.3750675152695
926.4686899423408
926.5714348867317
926.6830583850572
926.8033164739304
926.9319651899663
927.0687605697779
927.21345864998
927.3658154671858
927.5255870580102
927.6925294590662
927.8663987069687
928.0469508383311
928.2339418897676
928.4271278978924
928.6262648993188
928.8311089306615
929.0414160285341
929.2569422295506
929.4774435703256
929.702676087472
929.9323958176046
930.1663587973374
930.404321063284
930.6460386520583
930.891267600275
931.1397639445471
931.3912837214896
931.6455829677158
931.9024177198394
932.1615440144755
932.4227178882372
932.685695377739
932.9502325195945
933.2160853504175
933.4830099068226
933.7507622254238
934.0190983428342
934.2877742956689
934.556546120541
934.8251698540649
935.0934015328548
935.360997193524
935.6277128726875
935.8933046069584
936.1575284329512
936.4201403872795
936.6808965065576
936.9395528273994
937.1958653864186
937.4495902202297
937.7004833654461
937.9483008586825
938.1927987365522
938.4337330356695
938.670859792649
938.9039350441035
939.1327148266475
939.3569551768953
939.5764121314608
939.7908417269576
939.9999999999999
940.2036769987454
940.4017988175256
940.5943255622157
940.7812173386909
940.962434252827
941.1379364104988
941.3076839175816
941.4716368799504
941.629755403481
941.7819995940486
941.9283295575282
942.0687053997947
942.2030872267238
942.3314351441904
942.4537092580706
942.569869674239
942.6798764985709
942.7836898369414
942.8812697952262
942.9725764793003
943.0575699950389
943.1362104483171
943.2084579450107
943.2742725909942
943.3336144921437
943.3864437543334
943.4327204834397
943.4724047853371
943.5054567659013
943.5318365310069
943.5515041865302
943.5644198383452
943.5705435923282
943.5698355543539
943.5622558302975
943.5477645260347
943.5263217474402
943.4978876003896
943.4624221907583
943.4198856244212
943.3702380072539
943.3134394451313
943.2494500439287
943.1782299095216
943.099739147785
943.0139378645943
942.9207861658248
942.8202441573512
942.7122719450499
942.5968296347951
942.4738773324625
942.3433751439271
942.2052831750644
942.0595615317496
941.9061703198579
941.7450696452647
941.5762196138448
941.3995803314741
941.2151119040275
941.0227744373803
940.8225280374077
940.614332809985
940.3981488609874
940.1739362962901
939.9416552217687
939.7012657432978
939.4527279667532
939.19600199801
938.9310479429438
938.6578259074292
938.3762959973417
938.0864183185569
937.7881529769495
937.481460078395
937.1662997287689
936.842632033946
936.5104170998018
936.1696150322116
935.8201859370504
935.462089920194
935.0952870875169
934.719737544895
934.3354013982031
933.9422387533167
933.5402097161109
933.1292743924612
932.7093928882426
932.2805253093304
931.8426317615997
931.3956723509264
930.9396071831852
930.4743963642513
930.0000000000002
929.5164100341079
929.023745761456
928.5221583147255
928.0117988265989
927.492818429758
926.9653682568849
926.4295994406613
925.8856631137692
925.3337104088906
924.7738924587073
924.2063603959017
923.6312653531547
923.0487584631496
922.4589908585674
921.8621136720905
921.2582780364005
920.6476350841793
920.0303359481094
919.406531760872
918.7763736551497
918.1400127636238
917.497600218977
916.8492871538906
916.1952247010468
915.5355639931275
914.8704561628147
914.2000523427901
913.5245036657358
912.8439612643341
912.1585762712663
911.4684998192147
910.7738830408614
910.0748770688878
909.3716330359763
908.6643020748086
907.9530353180666
907.2379838984327
906.5192989485882
905.7971316012157
905.0716329889965
904.342954244613
903.6112465007469
902.8766608900802
902.1393485452949
901.399460599073
900.6571481840961
899.9125624330463
899.1658544786059
898.4171754534566
897.6666764902799
896.9145087217581
896.1608232805735
895.4057712994077
894.6495039109425
893.8921722478599
893.1339274428422
892.3749206285707
891.6153029377278
890.8552255029954
890.0948394570555
889.33429593259
888.5737460622802
887.8133409788089
887.0532318148579
886.293569703109
885.534505776244
884.7761911669448
884.0187770078936
883.2624144317723
882.5072545712626
881.7534485590468
881.0011475278068
880.250502610224
879.5016649389809
878.7547856467595
878.010015866241
877.2675067301084
876.5274093710426
875.7898749217262
875.0550545148412
874.323099283069
873.594160359092
872.868388875592
872.1459359652508
871.4269527607505
870.711590394773
870.0000000000001
869.2923169436913
868.5886135314137
867.8889463033122
867.1933717995315
866.5019465602162
865.8147271255114
865.131770035561
864.4531318305101
863.778869050504
863.1090382356864
862.4436959262026
861.782898662197
861.1267029838147
860.4751654311998
859.8283425444976
859.1862908638525
858.549066929409
857.9167272813123
857.2893284597066
856.6669270047369
856.0495794565478
855.4373423552842
854.8302722410905
854.2284256541113
853.6318591344917
853.040629222376
852.4547924579095
851.874405381236
851.2995245325009
850.7302064518489
850.1665076794243
849.6084847553718
849.0561942198364
848.5096926129628
847.9690364748953
847.4342823457789
846.9054867657584
846.3827062749784
845.8659974135834
845.3554167217184
844.8510207395278
844.3528660071568
843.861009064749
843.3755064524504
842.8964147104051
842.4237903787576
841.957689997653
841.4981701072359
841.0452872476504
840.5990979590423
840.1596587815554
839.7270262553349
839.3012569205254
838.8824073172711
838.4705339857176
838.0656934660086
837.6679422982895
837.2773370227047
836.8939341793994
836.5177903085173
836.1489619502039
835.7875056446037
835.4334779318613
835.0869353521216
834.747934445529
834.4165317522286
834.0927838123647
833.7767471660823
833.4684783535258
833.16803391484
832.8754703901698
832.5908443196595
832.314212243454
832.0456307016984
831.7851562345367
831.532845382114
831.2887546845751
831.0529406820646
830.8254599147269
830.6063689227068
830.3957242461493
830.1935824251989
830.0
829.8149815649265
829.6383239312665
829.4697719645372
829.3090705302551
829.1559644939372
829.0101987211004
828.8715180772622
828.739667427939
828.6143916386483
828.4954355749065
828.3825441022308
828.2754620861383
828.1739343921456
828.0777058857698
827.986521432528
827.9001258979373
827.8182641475145
827.740681046776
827.6671214612397
827.597330256422
827.5310522978401
827.4680324510109
827.408015581451
827.3507465546782
827.2959702362083
827.2434314915594
827.1928751862474
827.14404618579
827.0966893557043
827.0505495615064
827.0053716687141
826.960900542844
826.9168810494132
826.8730580539386
826.8291764219368
826.7849810189252
826.740216710421
826.6946283619401
826.6479608390007
826.5999590071191
826.5503677318122
826.4989318785973
826.4453963129913
826.3895059005109
826.3310055066733
826.2696399969952
826.2051542369941
826.1372930921862
826.065801428089
825.9904241102192
825.9109060040942
825.8269919752303
825.7384268891448
825.6449556113547
825.5463230073772
825.4422739427287
825.3325532829263
825.2169058934873
825.0950766399282
824.9668103877665
824.8318520025186
824.6899463497018
824.5408382948333
824.3842727034292
824.2199944410075
824.0477483730845
823.8672793651773
823.6783322828027
823.4806519914783
823.2739833567202
823.0580712440458
822.8326605189719
822.5974960470159
822.3523226936943
822.096885324524
821.8309288050225
821.5541980007064
821.2664377770924
820.967392999698
820.6568085340396
820.3344292456347
820.0
819.6533587467579
819.2947157719542
818.9243744457392
818.5426381382647
818.149810219681
817.7461940601389
817.3320930297898
816.9078104987844
816.4736498372739
816.029914415409
815.576907603341
815.1149327712203
814.6442932891979
814.1652925274251
813.6782338560528
813.1834206452316
812.6811562651128
812.1717440858472
811.6554874775858
811.1326898104793
810.603654454679
810.0686847803357
809.5280841576006
808.9821559566242
808.4312035475576
807.8755303005518
807.3154395857574
806.751234773326
806.1832192334082
805.6116963361549
805.036969451717
804.4593419502456
803.8791172018914
803.2965985768059
802.7120894451393
802.1258931770429
801.538313142668
800.9496527121651
800.360215255685
799.770304143379
799.1802227453979
798.5902744318928
798.0007625730143
797.4119905389139
796.8242616997421
796.2378794256496
795.6531470867882
795.0703680533079
794.4898456953603
793.911883383096
793.3367844866661
792.7648523762217
792.1963904219134
791.6317019938923
791.0710904623094
790.5148591973154
789.9633115690616
789.4167509476989
788.875480703378
788.3398042062498
787.8100248264656
787.286445934176
786.7693708995323
786.259103092685
785.7559458837853
785.2602026429845
784.7721767404328
784.2921715462816
783.8204904306817
783.3574367637841
782.9033139157399
782.4584252566997
782.0230741568147
781.597563986236
781.1821981151139
780.7772799136003
780.3831127518451
779.9999999999998
779.6281837056758
779.2676606263249
778.9183661968594
778.5802358521918
778.2532050272346
777.9372091569
777.6321836761001
777.3380640197475
777.0547856227547
776.7822839200345
776.5204943464981
776.2693523370586
776.0287933266284
775.7987527501197
775.5791660424447
775.3699686385161
775.171095973246
774.9824834815468
774.804066598331
774.6357807585108
774.4775613969989
774.329343948707
774.1910638485483
774.0626565314345
773.9440574322781
773.8352019859917
773.7360256274876
773.6464637916779
773.5664519134751
773.495925427792
773.4348197695401
773.3830703736328
773.3406126749812
773.3073821084987
773.2833141090972
773.2683441116893
773.2624075511874
773.2654398625035
773.2773764805502
773.2981528402398
773.3277043764849
773.3659665241973
773.41287471829
773.4683643936751
773.5323709852647
773.6048299279717
773.6856766567079
773.7748466063861
773.8722752119185
773.9778979082174
774.0916501301953
774.2134673127642
774.3432848908369
774.4810382993257
774.6266629731429
774.7800943472005
774.9412678564116
775.110118935688
775.2865830199422
775.4705955440864
775.6620919430336
775.8610076516954
776.0672781049846
776.2808387378133
776.5016249850942
776.7295722817391
776.9646160626609
777.2066917627718
777.4557348169842
777.7116806602103
777.9744647273624
778.2440224533535
778.5202892730953
778.8032006215001
779.0926919334808
779.3886986439493
779.6911561878181
779.9999999999999
780.3151685918184
780.636612780245
780.9642864586623
781.2981435204539
781.6381378590024
781.9842233676906
782.3363539399021
782.6944834690191
783.058565848425
783.4285549715026
783.804404731635
784.1860690222055
784.5735017365962
784.966656768191
785.3654880103722
785.7699493565231
786.1799947000263
786.5955779342653
787.0166529526228
787.4431736484819
787.8750939152255
788.3123676462361
788.7549487348975
789.2027910745921
789.6558485587032
790.1140750806134
790.577424533706
791.045850811364
791.5193078069699
791.9977494139067
792.4811295255582
792.9694020353071
793.4625208365355
793.960439822627
794.463112886965
794.9704939229316
795.4825368239102
795.9991954832838
796.5204237944355
797.0461756507477
797.5764049456042
798.1110655723872
798.65011142448
799.1934963952659
799.7411743781271
800.293099266447
800.8492249536089
801.4095053329954
801.9738942979893
802.542345741974
803.1148135583321
803.6912516404468
804.2716138817008
804.8558541754774
805.4439264151594
806.0357844941298
806.6313823057716
807.2306737434677
807.8336127006012
808.440153070555
809.0502487467119
809.663853622455
810.2809215911674
810.9014065462318
811.5252623810313
812.152442988949
812.7829022633678
813.4165940976708
814.0534723852405
814.6934910194602
815.3366038937131
815.9827649013815
816.6319279358491
817.2840468904986
817.9390756587127
818.5969681338747
819.2576782093671
819.9211597785736
820.5873667348769
821.2562529716597
821.9277723823053
822.6018788601963
823.2785262987159
823.9576685912473
824.6392596311728
825.3232533118761
826.0096035267397
826.6982641691467
827.38918913248
828.082332310123
828.7776475954582
829.4750888818687
830.1746100627375
830.8761650314473
831.5797076813814
832.285191905923
832.9925715984546
833.701800652359
834.4128329610197
835.1256224178195
835.8401229161414
836.5562883493682
837.2740726108831
837.9934295940686
838.7143131923085
839.4366772989848
840.1604758074812
840.8856626111805
841.6121916034655
842.3400166777191
843.0690917273245
843.7993706456647
844.5308073261226
845.2633556620809
845.996969546923
846.7316028740318
847.4672095367899
848.2037434285804
848.9411584427866
849.6794084727914
850.4184474119772
851.1582291537277
851.8987075914253
852.6398366184534
853.3815701281949
854.1238620140327
854.8666661693496
855.6099364875288
856.353626861953
857.0976911860055
857.842083353069
858.5867572565268
859.3316667897614
860.0767658461563
860.8220083190939
861.5673481019578
862.3127390881305
863.058135170995
863.8034902439342
864.5487582003315
865.2938929335697
866.0388483370316
866.7835783041
867.5280367281584
868.2721775025896
869.0159545207764
869.7593216761015
870.5022328619485
871.2446419717002
871.9865028987391
872.7277695364486
873.4683957782117
874.2083355174112
874.9475426474302
875.6859710616512
876.423574653458
877.1603073162332
877.8961229433593
878.6309754282198
879.3648186641977
880.0976065446758
880.8292929630368
881.559831812664
882.2891769869404
883.0172823792491
883.7441018829728
884.4695893914944
885.193698798197
885.9163839964634
886.6375988796768
887.3572973412203
888.0754332744765
888.7919605728288
889.5068331296595
890.2200048383523
890.9314295922898
891.6410612848551
892.3488538094308
893.0547610594003
893.7587369281464
894.4607353090521
895.1607100955005
895.8586151808743
896.5544044585565
897.2480318219307
897.9394511643787
898.6286163792846
899.3154813600307
900.0000000000001
900.6821400084544
901.3619243581703
902.0393898378029
902.7145732360066
903.3875113414372
904.058240942749
904.726798828598
905.3932217876386
906.0575466085261
906.7198100799158
907.3800489904623
908.0383001288211
908.6946002836467
909.3489862435949
910.0014947973203
910.6521627334778
911.3010268407234
911.9481239077109
912.5934907230961
913.237164075534
913.8791807536797
914.5195775461881
915.1583912417146
915.7956586289138
916.4314164964411
917.0657016329515
917.6985508271
918.3300008675416
918.9600885429318
919.5888506419252
920.2163239531769
920.8425452653421
921.467551367076
922.0913790470333
922.7140650938696
923.3356462962396
923.9561594427985
924.5756413222012
925.194128723103
925.8116584341586
926.4282672440235
927.0439919413527
927.6588693148012
928.2729361530239
928.886229244676
929.4987853784124
930.1106413428887
930.7218339267597
931.33239991868
931.9423761073052
932.5517992812904
933.1607062292901
933.76913373996
934.3771186019551
934.9846976039302
935.5919075345403
936.1987851824409
936.8053673362865
937.4116907847327
938.0177923164343
938.6237087200465
939.2294767842241
939.8351332976229
940.440715048897
941.0462588267018
941.6518014196928
942.2573796165248
942.8630302058523
943.4687899763314
944.0746957166162
944.6807842153627
945.2870922612253
945.8936566428591
946.5005141489196
947.1077015680617
947.7152556889401
948.3232133002103
948.9316111905273
949.5404861485459
950.1498749629213
950.7598144223089
951.3703413153629
951.9814924307396
952.5933045570932
953.2058144830792
953.8190589973524
954.4330748885678
955.0478989453808
955.6635679564463
956.2801187104192
956.8975879959548
957.5160126017081
958.1354293163344
958.7558749284879
959.3773862268249
959.9999999999998
960.6237379620861
961.2485615288317
961.8744170414033
962.5012508409674
963.1290092686897
963.757638665737
964.3870853732757
965.0172957324716
965.6482160844917
966.2797927705027
966.91197213167
967.5447005091607
968.177924244141
968.8115896777773
969.4456431512355
970.0800310056825
970.7146995822847
971.3495952222082
971.9846642666197
972.6198530566851
973.255107933571
973.890375238444
974.5256013124701
975.1607324968162
975.7957151326481
976.4304955611325
977.0650201234356
977.699235160724
978.3330870141637
978.9665220249215
979.5994865341635
980.2319268830561
980.8637894127658
981.4950204644588
982.1255663793019
982.7553734984609
983.3843881631024
984.012556714393
984.6398254934986
985.266140841586
985.8914490998216
986.5156966093714
987.1388297114019
987.7607947470798
988.3815380575711
989.0010059840423
989.6191448676595
990.2359010495899
990.8512208709992
991.4650506730535
992.0773367969201
992.6880255837642
993.2970633747533
993.9043965110533
994.5099713338303
995.1137341842511
995.7156314034823
996.3156093326892
996.913614313039
997.5095926856982
998.103490791833
998.6952549726094
999.2848315691941
999.8721669227538
1000.4572073744542
1001.039899265462
1001.6201889369438
1002.1980227300653
1002.7733469859936
1003.3461080458948
1003.916252250935
1004.4837259422812
1005.0484754610991
1005.6104471485556
1006.1695873458167
1006.7258423940493
1007.279158634419
1007.8294824080926
1008.3767600562368
1008.9209379200174
1009.461962340601
1009.999779659154
1010.5343362168426
1011.0655783548334
1011.5934524142931
1012.1179047363873
1012.6388816622826
1013.156329533146
1013.6701946901429
1014.1804234744404
1014.6869622272047
1015.1897572896021
1015.6887550027991
1016.1839017079617
1016.6751437462569
1017.1624274588506
1017.6456991869092
1018.1249052715992
1018.5999920540869
1019.070905875539
1019.5375930771213
1020.0000000000002
1020.4580589355867
1020.9116459762639
1021.360623164661
1021.8048525434053
1022.2441961551255
1022.6785160424492
1023.107674248005
1023.5315328144203
1023.9499537843242
1024.362799200344
1024.7699311051076
1025.171211541244
1025.5665025513808
1025.9556661781464
1026.3385644641683
1026.715059452075
1027.0850131844945
1027.4482877040552
1027.8047450533847
1028.1542472751114
1028.4966564118631
1028.8318345062685
1029.1596436009552
1029.4799457385514
1029.7926029616851
1030.0974773129847
1030.394430835078
1030.6833255705935
1030.9640235621587
1031.2363868524021
1031.5002774839522
1031.7555574994362
1032.002088941483
1032.2397338527196
1032.4683542757753
1032.6878122532778
1032.8979698278551
1033.098689042135
1033.2898319387461
1033.471260560317
1033.6428369494743
1033.804423148847
1033.9558812010634
1034.0970731487514
1034.227861034539
1034.348106901054
1034.4576727909252
1034.5564207467798
1034.644212811247
1034.7209110269537
1034.7863774365296
1034.840474082601
1034.883063007797
1034.9140062547458
1034.9331658660747
1034.940403884413
1034.9355823523877
1034.9185633126274
1034.8892088077598
1034.8473808804138
1034.792941573217
1034.7257529287974
1034.645676989783
1034.5525757988025
1034.4463113984834
1034.326745831454
1034.1937411403426
1034.047159367777
1033.8868625563853
1033.712712748796
1033.5245719876366
1033.3223023155358
1033.1057657751212
1032.8748244090214
1032.629340259864
1032.3691753702774
1032.0941917828893
1031.8042515403286
1031.4992166852223
1031.1789492602
1030.8433113078881
1030.4921648709162
1030.125371991911
1029.7427947135016
1029.344295078316
1028.929735128982
1028.4989769081278
1028.0518824583817
1027.5883138223712
1027.1081330427253
1026.611202162071
1026.0973832230372
1025.5665382682523
1025.0185293403435
1024.4532184819393
1023.8704677356678
1023.2701391441572
1022.6520947500358
1022.0161965959309
1021.3623067244713
1020.6902871782851
1019.9999999999998
1019.2914109704834
1018.5649008235566
1017.8209540312826
1017.0600550657211
1016.2826883989337
1015.4893385029819
1014.6804898499269
1013.8566269118294
1013.0182341607514
1012.1657960687527
1011.2997971078959
1010.4207217502415
1009.5290544678508
1008.6252797327853
1007.7098820171058
1006.7833457928739
1005.8461555321503
1004.8987957069966
1003.9417507894734
1002.975505251643
1002.0005435655656
1001.0173502033026
1000.0264096369156
999.0282063384653
998.0232247800134
997.0119494336205
995.9948647713484
994.972455265258
993.9452053874103
992.913599609867
991.8781224046888
990.8392582439371
989.7974915996732
988.7533069439585
987.7071887488535
986.6596214864198
985.6110896287184
984.562077647811
983.5130700157584
982.4645512046218
981.4170056864626
980.3709179333421
979.3267724173206
978.2850536104607
977.2462459848226
976.2108340124677
975.1793021654571
974.1521349158522
973.1298167357143
972.1128320971044
971.1016654720836
970.0968013327137
969.0987241510551
968.1079183991693
967.1248685491174
966.1500590729611
965.1839744427609
964.2270991305785
963.2799176084748
962.3429143485112
961.4165738227485
960.5013805032487
959.5978188620722
958.7063733712805
957.8275285029351
956.9617687290965
956.1095785218265
955.2714423531863
954.4478446952365
953.6392700200388
952.8462027996543
952.0691275061441
951.3085286115696
950.564890587992
949.838697907472
949.1304350420713
948.4405864638512
947.7696366448721
947.1180700571963
946.486371172884
945.8750244639972
945.2845144025966
944.7153254607438
944.1679421104993
943.6428488239251
943.1405300730818
942.6614703300307
942.2061540668334
941.7750657555508
941.3686898682438
940.9875108769745
940.6320132538029
940.3026814707912
940.0000000000001
939.7243165609548
939.475431863037
939.2530098630921
939.0567145179655
938.8862097845025
938.7411596195491
938.6212279799504
938.5260788225518
938.455376104199
938.4087837817375
938.3859658120127
938.3865861518699
938.410308758155
938.4567975877131
938.5257165973896
938.6167297440303
938.7295009844811
938.8636942755865
939.018973574192
939.1950028371441
939.3914460212874
939.6079670834679
939.8442299805307
940.0998986693213
940.3746371066854
940.6681092494686
940.9799790545159
941.3099104786729
941.6575674787857
942.0226140116988
942.4047140342585
942.8035315033095
943.2187303756983
943.6499746082694
944.0969281578692
944.5592549813422
945.0366190355344
945.5286842772914
946.0351146634584
946.5555741508811
947.0897266964047
947.637236256875
948.1977667891372
948.7709822500368
949.3565465964197
949.9541237851308
950.5633777730159
951.1839725169206
951.8155719736898
952.4578401001697
953.1104408532054
953.7730381896425
954.4452960663263
955.1268784401025
955.8174492678163
956.5166725063135
957.2242121124395
957.9397320430396
958.6628962549595
959.3933687050442
960.13081335014
960.8748941470917
961.6252750527451
962.3816200239454
963.1435930175384
963.9108579903695
964.6830788992842
965.4599197011279
966.2410443527458
967.0261168109839
967.8148010326875
968.606760974702
969.4016605938726
970.1991638470454
970.9989346910655
971.8006370827783
972.6039349790294
973.4084923366646
974.2139731125288
975.0200412634679
975.8263607463272
976.632595517952
977.4384095351882
978.2434667548813
979.047431133876
979.8499666290187
980.6507371971544
981.4494067951287
982.2456393797871
983.0390989079752
983.8294493365379
984.6163546223215
985.3994787221708
986.1784855929319
986.95303919145
987.72280347457
988.4874423991381
989.2466199219998
990.0000000000001
990.7472788143722
991.4882814438985
992.2228651917482
992.9508873610912
993.672205255097
994.3866761769357
995.0941574297761
995.7945063167888
996.4875801411426
997.1732362060078
997.8513318145535
998.5217242699498
999.1842708753659
999.838828933972
1000.4852557489372
1001.1234086234315
1001.7531448606243
1002.3743217636853
1002.9867966357846
1003.590426780091
1004.1850694997745
1004.7705820980051
1005.346821877952
1005.9136461427851
1006.4709121956737
1007.0184773397881
1007.5561988782973
1008.0839341143715
1008.6015403511794
1009.1088748918917
1009.6057950396776
1010.0921580977063
1010.5678213691484
1011.0326421571727
1011.4864777649493
1011.9291854956476
1012.3606226524373
1012.7806465384881
1013.1891144569698
1013.5858837110517
1013.9708116039037
1014.3437554386953
1014.7045725185961
1015.0531201467766
1015.3892556264049
1015.7128362606513
1016.0237193526862
1016.3217622056779
1016.6068221227971
1016.878756407213
1017.1374223620954
1017.3826772906141
1017.6143784959381
1017.832383281238
1018.0365489496826
1018.2267328044419
1018.4027921486851
1018.5645842855824
1018.7119665183034
1018.8447961500178
1018.9629304838945
1019.0662268231041
1019.1545424708157
1019.2277347301995
1019.285660904424
1019.3281782966599
1019.3551442100766
1019.3664159478437
1019.3618508131306
1019.3413061091068
1019.3046391389427
1019.2517072058074
1019.1823676128708
1019.0964776633023
1018.9938946602717
1018.8744759069483
1018.7380787065024
1018.584560362103
1018.41377817692
1018.225589454123
1018.0198514968819
1017.7964216083661
1017.5551570917452
1017.2959152501886
1017.0185533868665
1016.7229288049484
1016.4088988076039
1016.0763206980024
1015.7250517793137
1015.3549493547076
1014.9658707273537
1014.5576732004214
1014.1302140770803
1013.6833506605005
1013.2169402538514
1012.7308401603024
1012.2249076830232
1011.6990001251839
1011.1529747899536
1010.5866889805029
1010.0
1009.3928689559184
1008.7656721729414
1008.118889780056
1007.4530019062491
1006.7684886805075
1006.0658302318179
1005.3455066891665
1004.6079981815406
1003.8537848379268
1003.0833467873119
1002.297164158682
1001.4957170810248
1000.6794856833266
999.8489500945739
999.0045904437536
998.146886859853
997.2763194718581
996.3933684087558
995.4985137995328
994.5922357731762
993.6750144586724
992.7473299850085
991.8096624811704
990.8624920761456
989.9062988989208
988.9415630784823
987.9687647438176
986.9883840239125
986.0009010477545
985.0067959443298
984.0065488426254
983.0006398716282
981.9895491603247
980.9737568377014
979.9537430327454
978.9299878744434
977.9029714917818
976.873174013748
975.8410755693282
974.8071562875091
973.7718962972777
972.7357757276211
971.6992747075253
970.6628733659772
969.6270518319634
968.5922902344712
967.5590687024874
966.5278673649977
965.4991663509902
964.4734457894507
963.4511858093659
962.4328665397231
961.4189681095087
960.4099706477094
959.4063542833122
958.4085991453034
957.4171853626702
956.4325930643992
955.455302379477
954.4857934368903
953.5245463656261
952.5720412946708
951.6287583530117
950.6951776696349
949.7717793735271
948.8590435936754
947.9574504590671
947.0674800986881
946.1896126415247
945.3243282165648
944.4721069527945
943.6334289792011
942.80877442477
941.9986234184894
941.2034560893453
940.4237525663247
939.659992978414
938.9126574546007
938.1822261238704
937.4691791152107
936.7739965576078
936.097158580049
935.4391453115209
934.8004368810099
934.1815134175029
933.5828550499866
933.004941907448
932.4482541188734
931.9132718132498
931.400475119564
930.9103441668027
930.4433590839525
929.9999999999999
929.5806221864866
929.1850814851698
928.8131088803611
928.4644353563729
928.1387918975169
927.8359094881048
927.5555191124486
927.2973517548604
927.0611383996518
926.8466100311347
926.6534976336208
926.4815321914227
926.3304446888513
926.1999661102195
926.0898274398381
925.99975966202
925.9294937610761
925.8787607213193
925.8472915270606
925.834817162612
925.8410686122861
925.865776860394
925.9086728912479
925.9694876891598
926.0479522384413
926.1437975234045
926.256754528361
926.386554237623
926.5329276355021
926.6956057063104
926.8743194343598
927.068799803962
927.2787777994289
927.5039844050723
927.7441506052045
927.9990073841367
928.2682857261816
928.5517166156503
928.8490310368551
929.1599599741077
929.4842344117203
929.8215853340042
930.1717437252721
930.5344405698353
930.9094068520055
931.2963735560947
931.6950716664155
932.1052321672788
932.5265860429971
932.9588642778818
933.4017978562455
933.8551177623991
934.3185549806556
934.791840495326
935.2747052907222
935.7668803511565
936.2680966609408
936.7780852043869
937.296576965806
937.8233029295112
938.357994079813
938.9003814010246
939.4501958774573
940.0071684934227
940.5710302332329
941.1415120812002
941.7183450216356
942.3012600388519
942.8899881171604
943.4842602408729
944.0838073943015
944.6883605617583
945.2976507275553
945.9114088760036
946.5293659914156
947.1512530581032
947.7768010603778
948.4057409825521
949.0378038089373
949.6727205238456
950.3102221115889
950.9500395564786
951.5919038428274
952.2355459549465
952.8806968771479
953.5270875937438
954.1744490890455
954.8225123473657
955.4710083530156
956.1196680903072
956.7682225435525
957.4164026970633
958.0639395351518
958.7105640421291
959.356007202308
960.0000000000001
960.6423025345609
961.282791365526
961.9213721674726
962.5579506149797
963.1924323826257
963.8247231449894
964.4547285766492
965.0823543521835
965.7075061461712
966.3300896331901
966.9500104878192
967.5671743846373
968.1814869982221
968.7928540031528
969.4011810740078
970.006373885366
970.6083381118048
971.2069794279034
971.8022035082406
972.3939160273943
972.9820226599436
973.5664290804667
974.1470409635422
974.7237639837487
975.2965038156644
975.8651661338682
976.4296566129387
976.9898809274538
977.5457447519923
978.0971537611334
978.6440136294545
979.186230031535
979.7237086419532
980.2563551352873
980.7840751861158
981.3067744690178
981.8243586585713
982.3367334293553
982.8438044559476
983.3454774129273
983.8416579748726
984.3322518163626
984.8171646119754
985.2963020362893
985.7695697638827
986.2368734693348
986.6981188272238
987.1532115121282
987.6020571986263
988.0445615612972
988.4806302747188
988.9101690134698
989.3330834521292
989.7492792652748
990.1586621274856
990.5611377133399
990.9566116974164
991.3449897542934
991.7261775585494
992.1000807847632
992.4666051075129
992.8256562013776
993.1771397409357
993.520961400765
993.8570268554452
994.1852417795537
994.5055118476693
994.8177427343712
995.1218401142372
995.417709661846
995.705257051776
995.9843879586065
996.2550080569148
996.5170230212804
996.7703385262813
997.0148602464963
997.2504938565036
997.4771450308822
997.6947194442103
997.9031227710659
998.1022606860288
998.2920388636763
998.4723629785876
998.643138705341
998.8042717185152
998.9556676926886
999.0972323024394
999.2288712223466
999.3504901269888
999.4619946909438
999.5632905887909
999.6542834951083
999.7348790844744
999.804983031468
999.8645010106673
999.913338696651
999.9514017639975
999.9785958872857
999.9948267410938
1000.0000000000002
999.9940727476843
999.9772077042269
999.94961899881
999.9115207606153
999.8631271188243
999.804652202619
999.7363101411806
999.6583150636916
999.5708810993331
999.474222377287
999.3685530267352
999.2540871768591
999.1310389568403
998.9996224958612
998.8600519231026
998.7125413677469
998.5573049589755
998.39455682597
998.2245110979127
998.0473819039844
997.8633833733677
997.6727296352436
997.4756348187944
997.2723130532016
997.0629784676466
996.8478451913116
996.6271273533779
996.4010390830276
996.1697945094421
995.9336077618034
995.6926929692926
995.4472642610923
995.1975357663833
994.943721614348
994.686035934168
994.4246928550248
994.1599065061001
993.8918910165758
993.6208605156334
993.3470291324552
993.0706109962216
992.7918202361158
992.5108709813187
992.2279773610119
991.9433535043776
991.6572135405974
991.3697715988529
991.0812418083259
990.7918382981977
990.5017751976507
990.211266635866
989.9205267420257
989.6297696453113
989.3392094749046
989.0490603599873
988.7595364297412
988.470851813348
988.183220639989
987.8968570388464
987.6119751391019
987.3287890699369
987.0475129605334
986.768360940073
986.4915471377374
986.2172856827079
985.945790704167
985.6772763312961
985.4119566932769
985.1500459192907
984.8917581385199
984.6373074801458
984.38690807335
984.1407740473147
983.899119531221
983.6621586542514
983.4301055455867
983.2031743344093
982.9815791499003
982.7655341212419
982.5552533776159
982.3509510482037
982.1528412621869
981.961138148748
981.7760558370678
981.5978084563282
981.426610135711
981.2626750043978
981.106217191571
980.9574508264116
980.8165900381014
980.6838489558224
980.5594417087559
980.4435824260839
980.336485236988
980.2383642706498
980.1494336562517
980.0699075229742
980.0
979.9398936830551
979.8896450340428
979.8492789814118
979.81882045361
979.7982943790859
979.7877256862873
979.7871393036627
979.7965601596605
979.8160131827284
979.845523301315
979.885115443868
979.9348145388365
979.9946455146677
980.0646332998107
980.144802822713
980.2351790118232
980.3357867955896
980.4466511024598
980.5677968608826
980.699248999306
980.8410324461785
980.9931721299479
981.1556929790623
981.32861992197
981.5119778871198
981.7057918029593
981.9100865979369
982.124887200501
982.3502185390992
982.5861055421801
982.8325731381924
983.0896462555834
983.3573498228018
983.6357087682956
983.9247480205131
984.2244925079027
984.5349671589123
984.8561969019902
985.1882066655851
985.5310213781444
985.8846659681166
986.2491653639503
986.624544494093
987.0108282869933
987.4080416710995
987.8162095748598
988.2353569267221
988.6655086551348
989.1066896885466
989.5589249554047
990.0222393841578
990.4966579032545
990.9822054411427
991.4789069262702
991.9867872870856
992.5058714520371
993.036184349573
993.5777509081413
994.1305960561903
994.694744722168
995.2702218345233
995.8570523217033
996.4552611121574
997.0648731343325
997.685913316678
998.3184065876417
998.9623778756715
999.617852109216
1000.2848542167233
1000.9634091266413
1001.6535417674186
1002.3552770675033
1003.0686399553437
1003.7936553593876
1004.5303482080839
1005.27874342988
1006.0388659532244
1006.8107407065659
1007.5943926183517
1008.3898466170309
1009.1971276310514
1010.0162605888612
1010.8472704189087
1011.6901820496417
1012.545020409509
1013.4118104269587
1014.2905770304385
1015.1813451483976
1016.0841397092828
1016.9989856415435
1017.9259078736278
1018.8649313339835
1019.8160809510583
1020.7793816533015
1021.7548583691607
1022.7425360270845
1023.7424395555204
1024.7545938829173
1025.7790239377234
1026.8157546483862
1027.8648109433543
1028.9262177510764
1030.0
1031.0860934481623
1032.1840771719524
1033.2934410773485
1034.4136750703296
1035.5442690568732
1036.6847129429573
1037.8344966345603
1038.9931100376605
1040.1600430582362
1041.334785602265
1042.516827575725
1043.705658884595
1044.9007694348527
1046.1016491324767
1047.3077878834447
1048.518675593735
1049.7338021693251
1050.952657516195
1052.1747315403209
1053.3995141476814
1054.626495244256
1055.855164736021
1057.0850125289558
1058.3155285290377
1059.5462026422458
1060.7765247745574
1062.0059848319509
1063.2340727204046
1064.460278345897
1065.6840916144054
1066.9050024319085
1068.1225007043845
1069.3360763378114
1070.545219238167
1071.7494193114303
1072.9481664635787
1074.1409506005907
1075.3272616284441
1076.5065894531178
1077.6784239805893
1078.842255116837
1079.9975727678388
1081.1438668395733
1082.2806272380183
1083.4073438691523
1084.5235066389532
1085.6286054533987
1086.7221302184673
1087.8035708401376
1088.8724172243876
1089.9281592771954
1090.970286904539
1091.9982900123964
1093.0116585067458
1094.0098822935656
1094.992451278834
1095.958855368529
1096.9085844686288
1097.8411284851113
1098.755977323955
1099.652620891138
1100.5305490926382
1101.389251834434
1102.2282190225037
1103.0469405628248
1103.8449063613764
1104.6216063241357
1105.3765303570815
1106.1091683661916
1106.8190102574447
1107.5055459368182
1108.1682653102912
1108.8066582838405
1109.4202147634455
1110.0084246550834
1110.5707778647336
1111.1067642983728
1111.6158738619804
1112.0975964615334
1112.5514220030109
1112.9768403923908
1113.373341535651
1113.7404153387695
1114.0775517077252
1114.3842405484959
1114.6599717670595
1114.9042352693943
1115.1165209614787
1115.2963187492905
1115.4431185388078
1115.556410236009
1115.6356837468725
1115.680428977376
1115.6901358334976
1115.6642942212159
1115.602394046509
1115.5039252153542
1115.368377633731
1115.1952412076166
1114.9840058429893
1114.7341614458276
1114.4451979221092
1114.1166051778127
1113.747873118916
1113.3384916513976
1112.887950681235
1112.3957401144066
1111.861349856891
1111.284269814666
1110.6639898937094
1110.0
1109.2920225086013
1108.5407096709166
1107.746946207436
1106.9116168386493
1106.0356062850449
1105.1197992671139
1104.1650805053446
1103.172334720227
1102.1424466322503
1101.076300961904
1099.9747824296778
1098.8387757560606
1097.669165661543
1096.4668368666137
1095.2326740917624
1093.9675620574785
1092.6723854842514
1091.348029092571
1089.9953776029265
1088.6153157358071
1087.2087282117031
1085.7764997511033
1084.3195150744973
1082.8386589023746
1081.3348159552252
1079.8088709535375
1078.2617086178022
1076.6942136685082
1075.1072708261454
1073.5017648112025
1071.8785803441694
1070.2386021455354
1068.5827149357908
1066.9118034354244
1065.2267523649255
1063.5284464447839
1061.817770395489
1060.0956089375309
1058.3628467913982
1056.6203686775805
1054.8690593165682
1053.10980342885
1051.343485734915
1049.5709909552536
1047.793203810355
1046.0110090207083
1044.2252913068035
1042.4369353891298
1040.646825988177
1038.8558478244345
1037.0648856183911
1035.274824090537
1033.486547961362
1031.700941951355
1029.9188907810053
1028.1412791708028
1026.3689918412374
1024.6029135127978
1022.8439289059734
1021.0929227412546
1019.3507797391303
1017.61838462009
1015.8966221046232
1014.1863769132195
1012.4885337663685
1010.8039773845594
1009.1335924882818
1007.4782637980255
1005.8388760342793
1004.2163139175335
1002.611462168277
1001.0252055069994
999.4584286541906
997.9120163303394
996.3868532559361
994.8838241514696
993.4038137374293
991.9477067343055
990.5163878625865
989.1107418427626
987.7316533953235
986.3800072407579
985.0566880995558
983.7625806922066
982.4985697392
981.265539961025
980.0643760781716
978.895962811129
977.7611848803865
976.6609270064342
975.5960739097609
974.5675103108568
973.5761209302107
972.6227904883125
971.7084037056518
970.8338453027177
970.0000000000001
969.2075176754449
968.456108836827
967.7452491493775
967.0744142783275
966.4430798889088
965.8507216463523
965.2968152158896
964.7808362627517
964.30226045217
963.8605634493761
963.4552209196007
963.0857085280758
962.7515019400321
962.4520768207016
962.186908835315
961.9554736491039
961.7572469272992
961.5917043351332
961.4583215378362
961.3565742006398
961.285937988775
961.2458885674743
961.2359016019676
961.255452757487
961.3040176992637
961.3810720925287
961.4860916025136
961.6185518944498
961.7779286335682
961.9636974851005
962.175334114278
962.4123141863317
962.6741133664934
962.9602073199936
963.2700717120645
963.6031822079368
963.959014472842
964.3370441720116
964.7367469706768
965.1575985340687
965.5990745274189
966.0606506159585
966.5418024649188
967.0420057395313
967.560736105027
968.0974692266377
968.6516807695942
969.2228463991283
969.8104417804707
970.4139425788532
971.032824459507
971.6665630876636
972.3146341285537
972.9765132474092
973.6516761094612
974.339598379941
975.0397557240798
975.7516238071089
976.4746782942599
977.2083948507642
977.9522491418528
978.7057168327568
979.4682735887078
980.2393950749374
981.0185569566763
981.8052348991564
982.5989045676083
983.399041627264
984.2051217433545
985.0166205811109
985.8330138057651
986.6537770825479
987.4783860766908
988.3063164534251
989.137043877982
989.970044015593
990.8047925314893
991.6407650909025
992.4774373590633
993.3142850012032
994.1507836825541
994.9864090683467
995.8206368238123
996.6529426141824
997.4828021046884
998.3096909605614
999.133084847033
999.9524594293342
1000.7672903726963
1001.577053342351
1002.381224003529
1003.1792780214623
1003.9706910613817
1004.7549387885189
1005.5314968681048
1006.2998409653708
1007.0594467455483
1007.8097898738685
1008.5503460155634
1009.2805908358631
1010.0
1010.7081228247567
1011.4048032331235
1012.0899587996428
1012.7635070988572
1013.425365705309
1014.0754521935396
1014.7136841380919
1015.3399791135081
1015.9542546943305
1016.5564284551012
1017.1464179703629
1017.724140814657
1018.2895145625264
1018.8424567885132
1019.3828850671598
1019.9107169730086
1020.4258700806013
1020.9282619644804
1021.4178101991887
1021.8944323592676
1022.3580460192594
1022.8085687537069
1023.2459181371522
1023.6700117441377
1024.0807671492055
1024.4781019268978
1024.8619336517568
1025.2321798983248
1025.588758241144
1025.931586254757
1026.260581513706
1026.5756615925332
1026.87674406578
1027.1637465079898
1027.4365864937045
1027.6951815974662
1027.9394493938175
1028.1693074573002
1028.3846733624573
1028.5854646838302
1028.7715989959615
1028.9429938733933
1029.0995668906685
1029.2412356223285
1029.3679176429162
1029.479530526974
1029.575991849043
1029.6572191836665
1029.7231301053864
1029.7736421887455
1029.8086730082853
1029.8281401385482
1029.831961154077
1029.8200536294135
1029.7923351390998
1029.7487232576786
1029.689135559692
1029.613489619682
1029.5217030121914
1029.413693311762
1029.2893780929364
1029.1486749302564
1028.991501398265
1028.8177750715035
1028.6274135245146
1028.4203343318409
1028.1964550680243
1027.9556933076071
1027.6979666251314
1027.4231925951399
1027.1312887921742
1026.8221727907774
1026.495762165491
1026.1519744908578
1025.7907273414198
1025.411938291719
1025.0155249162985
1024.6014047896997
1024.1694954864652
1023.7197145811372
1023.2519796482579
1022.7662082623699
1022.2623179980153
1021.7402264297357
1021.1998511320745
1020.6411096795731
1020.063919646774
1019.46819860822
1018.8538641384523
1018.2208338120136
1017.5690252034468
1016.8983558872935
1016.2087434380962
1015.5001054303967
1014.7723594387379
1014.0254230376618
1013.2592138017103
1012.4736493054263
1011.6686471233518
1010.8441248300288
1010.0
1009.1362825250543
1008.2533515659691
1007.3516786007685
1006.4317351074769
1005.4939925641182
1004.5389224487171
1003.5669962392973
1002.5786854138831
1001.5744614504989
1000.554795827169
999.5201600219174
998.4710255127683
997.4078637777461
996.331146294875
995.2413445421789
994.1389299976822
993.0243741394095
991.8981484453842
990.7607243936311
989.6125734621747
988.4541671290383
987.2859768722468
986.1084741698241
984.9221304997947
983.7274173401828
982.524806169012
981.3147684643073
980.0977757040926
978.8742993663918
977.6448109292297
976.4097818706302
975.1696836686175
973.9249878012158
972.6761657464494
971.4236889823425
970.1680289869191
968.9096572382037
967.6490452142207
966.3866643929937
965.1229862525472
963.8584822709058
962.5936239260934
961.3288826961339
960.064730059052
958.8016374928715
957.5400764756167
956.2805184853123
955.023434999982
953.7692974976501
952.5185774563408
951.2717463540786
950.0292756688874
948.7916368787917
947.5593014618152
946.3327408959824
945.1124266593179
943.8988302298453
942.6924230855893
941.4936767045739
940.303062564823
939.1210521443613
937.9481169212129
936.7847283734018
935.6313579789523
934.488477215889
933.3565575622357
932.2360704960163
931.1274874952558
930.0312800379779
928.9479196022068
927.8778776659672
926.8216257072826
925.7796352041778
924.7523776346769
923.7403244768037
922.7439472085828
921.7637173080385
920.8001062531945
919.8535855220755
918.9246265927057
918.013700943109
917.1212800513099
916.2478353953327
915.393838453201
914.5597607029398
913.7460736225728
912.953248690124
912.1817573836187
911.4320711810797
910.7046615605323
910.0
909.3184479383938
908.6599266581684
908.0242474026655
907.4112214152264
906.8206599391921
906.2523742179038
905.7061754947038
905.1818750129326
904.6792840159322
904.1982137470434
903.7384754496076
903.2998803669661
902.8822397424609
902.485364819433
902.1090668412232
901.7531570511735
901.417446692625
901.1017470089193
900.8058692433974
900.5296246394009
900.2728244402709
900.035279889349
899.8168022299767
899.6172027054948
899.4362925592453
899.273883034569
899.1297853748075
899.0038108233022
898.8957706233942
898.8054760184253
898.7327382517365
898.6773685666692
898.6391782065647
898.6179784147647
898.6135804346101
898.6257955094426
898.6544348826034
898.6993097974337
898.760231497275
898.8370112254688
898.9294602253563
899.0373897402787
899.1606110135776
899.2989352885945
899.4521738086702
899.6201378171465
899.8026385573647
899.999487272666
900.2104952063921
900.4354736018837
900.6742337024825
900.9265867515301
901.1923439923677
901.4713166683365
901.7633160227779
902.0681532990334
902.3856397404442
902.7155865903516
903.057805092097
903.412106489022
903.778302024468
904.1562029417756
904.545620484287
904.9463658953431
905.3582504182855
905.7810852964551
906.214681773194
906.6588510918426
907.1134044957433
907.5781532282366
908.0529085326644
908.5374816523677
909.031683830688
909.5353263109668
910.0482203365452
910.5701771507644
911.1010079969661
911.6405241184916
912.1885367586822
912.7448571608794
913.3092965684243
913.8816662246584
914.4617773729232
915.0494412565592
915.644469118909
916.2466722033131
916.8558617531132
917.4718490116509
918.0944452222668
918.7234616283029
919.3587094730998
919.9999999999999
920.6471087072514
921.2996681127335
921.9572749892321
922.6195261095332
923.2860182464235
923.9563481726896
924.6301126611173
925.3069084844929
925.9863324156025
926.667981227233
927.35145169217
928.0363405832003
928.72224467311
929.4087607346854
930.0954855407125
930.7820158639784
931.4679484772681
932.1528801533689
932.8364076650665
933.5181277851478
934.1976372863983
934.8745329416049
935.5484115235538
936.218869805031
936.8855045588228
937.5479125577159
938.205690574496
938.8584353819497
939.5057437528633
940.1472124600231
940.7824382762152
941.4110179742258
942.0325483268417
942.6466261068488
943.2528480870332
943.8508110401814
944.44011173908
945.0203469565145
945.5911134652717
946.1520080381379
946.7026274478993
947.242568467342
947.7714278692526
948.2888024264172
948.7942889116221
949.2874840976534
949.7679847572979
950.2353876633415
950.6892895885701
951.1292873057706
951.5549775877292
951.965957207232
952.3618229370652
952.7421715500152
953.1065998188684
953.4547045164109
953.7860824154288
954.1003302887092
954.3970449090372
954.6758230492002
954.9362614819835
955.177956980174
955.400506316558
955.6035062639215
955.7865535950506
955.9492450827321
956.0911774997517
956.2119476188964
956.311152212952
956.3883880547048
956.4432519169411
956.4753405724475
956.4842507940095
956.4695793544143
956.4309230264477
956.3678785828959
956.2800427965452
956.1670124401822
956.0283842865929
955.8637551085637
955.6727216788806
955.4548807703303
955.2098291556989
954.9371636077725
954.6364808993379
954.3073778031808
953.9494510920875
953.5622975388449
953.1455139162383
952.698696997055
952.2214435540809
951.7133503601018
951.1740141879045
950.6030318102754
950.0000000000003
949.364678068704
948.6974754833648
947.9989642497991
947.2697163738236
946.5103038612549
945.7212987179089
944.9032729496033
944.0567985621536
943.1824475613766
942.2807919530889
941.3524037431072
940.3978549372478
939.4177175413273
938.4125635611624
937.3829650025692
936.3294938713648
935.2527221733653
934.1532219143876
933.0315651002475
931.8883237367626
930.7240698297487
929.5393753850221
928.3348124084008
927.1109529056996
925.8683688827358
924.6076323453257
923.3293152992861
922.0339897504335
920.7222277045844
919.394601167555
918.0516821451624
916.6940426432228
915.322254667553
913.9368902239692
912.5385213182878
911.127719956326
909.7050581438997
908.2711078868256
906.8264411909206
905.3716300620006
903.9072465058827
902.4338625283834
900.9520501353186
899.4623813325054
897.9654281257604
896.4617625208997
894.9519565237403
893.4365821400984
891.9162113757906
890.3914162366333
888.8627687284435
887.3308408570375
885.7962046282315
884.2594320478424
882.721095121687
881.1817658555811
879.6420162553414
878.1024183267853
876.5635440757285
875.0259655079874
873.490254629379
871.9569834457196
870.4267239628261
868.9000481865146
867.3775281226017
865.8597357769042
864.3472431552384
862.8406222634209
861.340445107268
859.8472836925966
858.3617100252233
856.8842961109642
855.4156139556361
853.9562355650556
852.5067329450391
851.0676781014031
849.6396430399644
848.223199766539
846.8189202869439
845.4273766069955
844.0491407325104
842.6847846693049
841.334880423196
839.9999999999999
838.6806326062751
837.3769362515501
836.0889861460944
834.8168575001782
833.560625524072
832.3203654280452
831.0961524223685
829.8880617173114
828.6961685231444
827.5205480501374
826.3612755085603
825.2184261086836
824.0920750607771
822.9822975751109
821.8891688619547
820.8127641315795
819.7531585942544
818.71042746025
817.6846459398365
